Data from T1_Reflection__8__13-28-11-060.txt Node

Date: Thu Jun 03 13:28:11 CEST 2021
User: mabdelazizm
Spectrometer: FLMS18565
Trigger mode: 0
Integration Time (sec): 2.000000E0
Scans to average: 1
Electric dark correction enabled: true
Nonlinearity correction enabled: false
Boxcar width: 12
XAxis mode: Wavelengths
Number of Pixels in Spectrum: 2048
>>>>>Begin Spectral Data<<<<<
179.071	-32.61
179.452	-0.56
179.833	10.72
180.214	37.57
180.595	27.46
180.977	65.34
181.358	57
181.739	38.31
182.12	22.51
182.501	5.46
182.882	-15.34
183.262	-8.04
183.643	25.07
184.024	27.76
184.405	38.18
184.786	37.11
185.166	37.54
185.547	37.77
185.927	32.82
186.308	35.73
186.689	42.34
187.069	46.19
187.449	42.72
187.83	36.98
188.21	35.5
188.59	32.49
188.971	30.04
189.351	29.19
189.731	20.8
190.111	18.8
190.491	12.11
190.871	14.38
191.251	18.34
191.631	19.34
192.011	18.86
192.391	21.8
192.771	21.67
193.151	21.11
193.531	18.76
193.91	16.2
194.29	14.95
194.67	13.91
195.049	10.76
195.429	9.68
195.808	7.23
196.188	8.08
196.567	6.59
196.946	6.15
197.326	8.59
197.705	9.36
198.084	11.64
198.464	10.33
198.843	10.97
199.222	12.43
199.601	13.84
199.98	13.63
200.359	13.82
200.738	12.81
201.117	13.46
201.496	12.36
201.875	10.7
202.254	10.25
202.632	7.43
203.011	7.97
203.39	10.23
203.768	11.37
204.147	11.15
204.525	12.15
204.904	14.62
205.282	15.58
205.661	13.35
206.039	14.74
206.418	14.63
206.796	14.89
207.174	14.13
207.552	13.07
207.931	11.54
208.309	9.76
208.687	9.51
209.065	10.03
209.443	10.14
209.821	8.52
210.199	9.25
210.577	8.47
210.954	9.98
211.332	9.21
211.71	7.39
212.088	8.25
212.465	8.55
212.843	6.38
213.221	5.87
213.598	6.4
213.976	6.6
214.353	6.35
214.731	6.37
215.108	6.47
215.485	5.71
215.863	4.55
216.24	3.53
216.617	4.31
216.994	4.18
217.371	4.7
217.749	4.1
218.126	3.68
218.503	3.44
218.88	4.45
219.256	5.65
219.633	4.74
220.01	4.29
220.387	4.5
220.764	4.58
221.14	5.19
221.517	5.16
221.894	5.18
222.27	5.73
222.647	5.27
223.023	5.22
223.4	4.78
223.776	4.72
224.153	5.06
224.529	5.02
224.905	5.13
225.282	5.6
225.658	5.35
226.034	5.27
226.41	5.5
226.786	5.73
227.162	6.09
227.538	5.94
227.914	5.5
228.29	5.15
228.666	4.76
229.042	4.9
229.418	5.05
229.793	4.94
230.169	5.05
230.545	4.96
230.92	4.94
231.296	4.67
231.672	4.5
232.047	4.45
232.422	4.42
232.798	4.45
233.173	4.36
233.549	4.07
233.924	4.1
234.299	3.87
234.674	3.78
235.05	3.81
235.425	3.68
235.8	3.6
236.175	3.58
236.55	3.54
236.925	3.49
237.3	3.51
237.675	3.53
238.049	3.55
238.424	3.41
238.799	3.43
239.174	3.3
239.548	3.22
239.923	3.23
240.297	3.19
240.672	3.29
241.046	3.31
241.421	3.37
241.795	3.4
242.17	3.5
242.544	3.46
242.918	3.58
243.293	3.56
243.667	3.57
244.041	3.56
244.415	3.53
244.789	3.54
245.163	3.47
245.537	3.48
245.911	3.41
246.285	3.36
246.659	3.34
247.033	3.28
247.406	3.24
247.78	3.31
248.154	3.29
248.528	3.33
248.901	3.36
249.275	3.32
249.648	3.28
250.022	3.3
250.395	3.22
250.769	3.18
251.142	3.17
251.515	3.02
251.888	3.05
252.262	2.96
252.635	2.87
253.008	2.8
253.381	2.82
253.754	2.8
254.127	2.77
254.5	2.74
254.873	2.71
255.246	2.74
255.619	2.82
255.992	2.82
256.364	2.79
256.737	2.76
257.11	2.71
257.483	2.7
257.855	2.69
258.228	2.68
258.6	2.67
258.973	2.67
259.345	2.59
259.718	2.59
260.09	2.6
260.462	2.55
260.834	2.58
261.207	2.54
261.579	2.58
261.951	2.66
262.323	2.66
262.695	2.63
263.067	2.66
263.439	2.66
263.811	2.67
264.183	2.62
264.555	2.6
264.927	2.53
265.298	2.55
265.67	2.58
266.042	2.61
266.413	2.59
266.785	2.56
267.156	2.58
267.528	2.57
267.899	2.6
268.271	2.58
268.642	2.62
269.013	2.62
269.385	2.64
269.756	2.62
270.127	2.59
270.498	2.58
270.87	2.49
271.241	2.45
271.612	2.52
271.983	2.51
272.354	2.49
272.724	2.54
273.095	2.48
273.466	2.5
273.837	2.49
274.208	2.5
274.578	2.49
274.949	2.48
275.32	2.46
275.69	2.5
276.061	2.46
276.431	2.44
276.802	2.4
277.172	2.37
277.542	2.34
277.913	2.34
278.283	2.31
278.653	2.27
279.023	2.3
279.394	2.31
279.764	2.27
280.134	2.27
280.504	2.26
280.874	2.23
281.244	2.23
281.614	2.19
281.983	2.15
282.353	2.22
282.723	2.19
283.093	2.2
283.462	2.16
283.832	2.15
284.202	2.17
284.571	2.14
284.941	2.14
285.31	2.1
285.68	2.05
286.049	2.1
286.418	2.07
286.788	2.1
287.157	2.05
287.526	2.12
287.895	2.06
288.264	2.06
288.633	2.03
289.002	2.02
289.371	2.04
289.74	2.01
290.109	1.99
290.478	1.98
290.847	1.96
291.216	1.92
291.585	1.84
291.953	1.78
292.322	1.78
292.691	1.81
293.059	1.71
293.428	1.66
293.796	1.65
294.165	1.63
294.533	1.66
294.901	1.7
295.27	1.63
295.638	1.64
296.006	1.59
296.374	1.6
296.743	1.57
297.111	1.55
297.479	1.47
297.847	1.49
298.215	1.51
298.583	1.48
298.95	1.52
299.318	1.52
299.686	1.52
300.054	1.59
300.422	1.57
300.789	1.61
301.157	1.62
301.525	1.61
301.892	1.59
302.26	1.65
302.627	1.69
302.994	1.73
303.362	1.77
303.729	1.75
304.097	1.71
304.464	1.7
304.831	1.74
305.198	1.74
305.565	1.72
305.932	1.75
306.299	1.74
306.666	1.74
307.033	1.74
307.4	1.76
307.767	1.76
308.134	1.7
308.501	1.68
308.867	1.66
309.234	1.58
309.601	1.62
309.967	1.64
310.334	1.71
310.701	1.66
311.067	1.63
311.433	1.66
311.8	1.67
312.166	1.62
312.533	1.56
312.899	1.61
313.265	1.6
313.631	1.59
313.997	1.56
314.363	1.56
314.729	1.6
315.096	1.57
315.461	1.63
315.827	1.64
316.193	1.68
316.559	1.59
316.925	1.59
317.291	1.62
317.656	1.64
318.022	1.7
318.388	1.75
318.753	1.69
319.119	1.64
319.484	1.61
319.85	1.67
320.215	1.75
320.581	1.74
320.946	1.67
321.311	1.64
321.676	1.68
322.042	1.65
322.407	1.72
322.772	1.71
323.137	1.75
323.502	1.76
323.867	1.67
324.232	1.68
324.597	1.67
324.962	1.68
325.327	1.62
325.691	1.73
326.056	1.72
326.421	1.73
326.785	1.68
327.15	1.66
327.514	1.6
327.879	1.65
328.243	1.67
328.608	1.69
328.972	1.66
329.337	1.63
329.701	1.64
330.065	1.65
330.429	1.66
330.794	1.56
331.158	1.58
331.522	1.5
331.886	1.54
332.25	1.5
332.614	1.5
332.978	1.57
333.342	1.5
333.705	1.44
334.069	1.39
334.433	1.46
334.797	1.36
335.16	1.36
335.524	1.39
335.887	1.4
336.251	1.32
336.614	1.35
336.978	1.32
337.341	1.32
337.705	1.29
338.068	1.33
338.431	1.32
338.794	1.28
339.158	1.29
339.521	1.35
339.884	1.39
340.247	1.39
340.61	1.4
340.973	1.41
341.336	1.4
341.699	1.37
342.062	1.32
342.424	1.3
342.787	1.31
343.15	1.37
343.512	1.31
343.875	1.39
344.238	1.41
344.6	1.34
344.963	1.28
345.325	1.34
345.688	1.3
346.05	1.33
346.412	1.37
346.775	1.33
347.137	1.25
347.499	1.26
347.861	1.26
348.223	1.27
348.585	1.25
348.947	1.22
349.309	1.18
349.671	1.21
350.033	1.21
350.395	1.16
350.757	1.23
351.118	1.21
351.48	1.22
351.842	1.2
352.203	1.2
352.565	1.21
352.927	1.23
353.288	1.22
353.65	1.27
354.011	1.33
354.372	1.31
354.734	1.32
355.095	1.31
355.456	1.27
355.817	1.31
356.179	1.35
356.54	1.34
356.901	1.3
357.262	1.27
357.623	1.33
357.984	1.36
358.345	1.37
358.705	1.36
359.066	1.29
359.427	1.3
359.788	1.27
360.148	1.3
360.509	1.29
360.87	1.3
361.23	1.28
361.591	1.24
361.951	1.19
362.312	1.21
362.672	1.2
363.032	1.26
363.393	1.24
363.753	1.3
364.113	1.22
364.473	1.21
364.833	1.2
365.193	1.22
365.553	1.23
365.913	1.25
366.273	1.22
366.633	1.18
366.993	1.14
367.353	1.09
367.713	1.05
368.072	1.05
368.432	1.04
368.792	0.98
369.151	0.92
369.511	0.92
369.87	1
370.23	1.02
370.589	1.08
370.949	1.05
371.308	1.03
371.667	1.02
372.027	0.9
372.386	0.89
372.745	0.86
373.104	0.92
373.463	0.91
373.822	0.93
374.181	0.92
374.54	0.85
374.899	0.88
375.258	0.91
375.617	0.87
375.975	0.97
376.334	1.04
376.693	1.09
377.052	1.16
377.41	1.2
377.769	1.31
378.127	1.32
378.486	1.4
378.844	1.34
379.202	1.34
379.561	1.31
379.919	1.34
380.277	1.3
380.636	1.27
380.994	1.3
381.352	1.31
381.71	1.34
382.068	1.42
382.426	1.41
382.784	1.35
383.142	1.28
383.5	1.28
383.857	1.32
384.215	1.33
384.573	1.34
384.931	1.33
385.288	1.25
385.646	1.24
386.003	1.17
386.361	1.2
386.718	1.19
387.076	1.29
387.433	1.3
387.791	1.3
388.148	1.34
388.505	1.37
388.862	1.36
389.22	1.43
389.577	1.52
389.934	1.5
390.291	1.52
390.648	1.52
391.005	1.5
391.362	1.52
391.718	1.57
392.075	1.65
392.432	1.67
392.789	1.6
393.145	1.63
393.502	1.68
393.859	1.68
394.215	1.75
394.572	1.78
394.928	1.86
395.285	1.84
395.641	1.86
395.997	1.85
396.354	1.86
396.71	1.9
397.066	1.9
397.422	1.9
397.778	1.94
398.134	1.96
398.491	1.97
398.846	2.08
399.202	2.19
399.558	2.22
399.914	2.26
400.27	2.38
400.626	2.47
400.981	2.55
401.337	2.7
401.693	2.86
402.048	2.98
402.404	3.06
402.759	3.09
403.115	3.23
403.47	3.27
403.826	3.38
404.181	3.52
404.536	3.57
404.892	3.66
405.247	3.78
405.602	4.03
405.957	4.22
406.312	4.29
406.667	4.46
407.022	4.67
407.377	4.86
407.732	5.01
408.087	5.14
408.442	5.41
408.796	5.63
409.151	5.89
409.506	6.12
409.86	6.31
410.215	6.48
410.57	6.75
410.924	6.94
411.279	7.24
411.633	7.64
411.987	7.98
412.342	8.38
412.696	8.7
413.05	9.13
413.404	9.53
413.758	10.03
414.113	10.36
414.467	10.65
414.821	10.9
415.175	11.43
415.529	11.85
415.882	12.31
416.236	12.65
416.59	13.11
416.944	13.59
417.298	14
417.651	14.48
418.005	14.89
418.358	15.39
418.712	15.95
419.065	16.52
419.419	16.91
419.772	17.44
420.126	17.89
420.479	18.3
420.832	18.68
421.185	19.09
421.539	19.57
421.892	19.98
422.245	20.42
422.598	20.77
422.951	21.21
423.304	21.7
423.657	22.24
424.01	22.74
424.363	23.23
424.715	23.66
425.068	24.25
425.421	24.7
425.773	25.16
426.126	25.69
426.479	26.12
426.831	26.56
427.184	27
427.536	27.26
427.889	27.55
428.241	27.97
428.593	28.39
428.945	28.8
429.298	29.22
429.65	29.65
430.002	30.05
430.354	30.5
430.706	30.82
431.058	31.22
431.41	31.67
431.762	32.19
432.114	32.57
432.466	32.93
432.817	33.32
433.169	33.86
433.521	34.3
433.872	34.6
434.224	34.97
434.576	35.32
434.927	35.54
435.279	35.84
435.63	36.1
435.981	36.28
436.333	36.59
436.684	36.83
437.035	37.14
437.387	37.33
437.738	37.54
438.089	37.76
438.44	37.99
438.791	38.2
439.142	38.25
439.493	38.49
439.844	38.7
440.195	38.72
440.545	38.8
440.896	38.95
441.247	39.18
441.598	39.24
441.948	39.22
442.299	39.35
442.649	39.45
443	39.48
443.35	39.6
443.701	39.79
444.051	39.88
444.401	40.02
444.752	40.12
445.102	40.22
445.452	40.4
445.802	40.56
446.152	40.59
446.502	40.62
446.852	40.77
447.202	40.65
447.552	40.74
447.902	41.02
448.252	41.06
448.602	41.26
448.952	41.45
449.301	41.57
449.651	41.63
450.001	41.65
450.35	41.68
450.7	41.69
451.049	41.65
451.399	41.71
451.748	41.89
452.097	41.84
452.447	41.74
452.796	41.67
453.145	41.6
453.494	41.63
453.843	41.67
454.193	41.71
454.542	41.63
454.891	41.77
455.239	41.7
455.588	41.63
455.937	41.83
456.286	41.81
456.635	41.6
456.984	41.6
457.332	41.46
457.681	41.46
458.03	41.46
458.378	41.29
458.727	41.14
459.075	41.13
459.423	41.23
459.772	41.09
460.12	41.01
460.468	40.88
460.817	40.91
461.165	40.97
461.513	40.96
461.861	40.88
462.209	40.65
462.557	40.58
462.905	40.44
463.253	40.29
463.601	40.17
463.949	40.16
464.297	40.09
464.644	39.96
464.992	39.9
465.34	39.83
465.687	39.73
466.035	39.51
466.383	39.38
466.73	39.09
467.078	39.19
467.425	39.09
467.772	38.94
468.12	38.65
468.467	38.59
468.814	38.44
469.161	38.3
469.508	38.1
469.856	37.93
470.203	37.87
470.55	37.82
470.897	37.79
471.243	37.58
471.59	37.49
471.937	37.29
472.284	37.2
472.631	37.08
472.977	36.98
473.324	36.91
473.671	36.77
474.017	36.62
474.364	36.44
474.71	36.31
475.057	36.15
475.403	35.99
475.749	35.83
476.096	35.71
476.442	35.63
476.788	35.57
477.134	35.5
477.48	35.46
477.826	35.27
478.172	35.14
478.518	34.98
478.864	34.76
479.21	34.68
479.556	34.56
479.902	34.44
480.248	34.3
480.593	34.16
480.939	33.9
481.285	33.79
481.63	33.64
481.976	33.37
482.321	33.13
482.667	33.08
483.012	32.92
483.357	32.76
483.703	32.6
484.048	32.45
484.393	32.24
484.738	32.17
485.084	31.97
485.429	31.82
485.774	31.65
486.119	31.54
486.464	31.39
486.808	31.2
487.153	30.97
487.498	30.84
487.843	30.62
488.188	30.49
488.532	30.4
488.877	30.21
489.222	30.05
489.566	29.97
489.911	29.72
490.255	29.45
490.6	29.3
490.944	29.18
491.288	28.95
491.633	28.82
491.977	28.68
492.321	28.51
492.665	28.36
493.009	28.2
493.353	28.07
493.697	27.95
494.041	27.73
494.385	27.6
494.729	27.34
495.073	27.2
495.417	27.11
495.76	27.1
496.104	26.9
496.448	26.79
496.791	26.57
497.135	26.41
497.479	26.24
497.822	26.13
498.165	25.95
498.509	25.83
498.852	25.67
499.196	25.53
499.539	25.4
499.882	25.3
500.225	25.16
500.568	25.07
500.911	24.97
501.254	24.86
501.597	24.84
501.94	24.62
502.283	24.47
502.626	24.44
502.969	24.34
503.312	24.27
503.654	24.2
503.997	24.08
504.34	23.84
504.682	23.67
505.025	23.51
505.367	23.4
505.71	23.21
506.052	23.15
506.395	23
506.737	22.84
507.079	22.7
507.421	22.62
507.764	22.52
508.106	22.36
508.448	22.11
508.79	21.95
509.132	21.82
509.474	21.74
509.816	21.64
510.158	21.45
510.499	21.36
510.841	21.3
511.183	21.15
511.525	21.01
511.866	20.88
512.208	20.77
512.549	20.6
512.891	20.42
513.232	20.4
513.574	20.25
513.915	20.19
514.256	20.04
514.598	19.84
514.939	19.81
515.28	19.72
515.621	19.61
515.962	19.55
516.303	19.44
516.644	19.38
516.985	19.38
517.326	19.3
517.667	19.23
518.008	19.04
518.349	18.99
518.69	18.79
519.03	18.58
519.371	18.51
519.712	18.37
520.052	18.12
520.393	18.02
520.733	17.92
521.074	17.87
521.414	17.9
521.754	17.81
522.095	17.69
522.435	17.55
522.775	17.52
523.115	17.4
523.455	17.31
523.795	17.34
524.135	17.29
524.475	17.14
524.815	17.06
525.155	17.01
525.495	16.96
525.835	16.94
526.175	16.78
526.514	16.73
526.854	16.56
527.194	16.6
527.533	16.57
527.873	16.34
528.212	16.22
528.552	16.27
528.891	16.18
529.23	16.1
529.57	16.01
529.909	15.9
530.248	15.78
530.587	15.8
530.927	15.81
531.266	15.71
531.605	15.63
531.944	15.45
532.283	15.24
532.621	15.14
532.96	15.08
533.299	15.02
533.638	14.87
533.977	14.66
534.315	14.55
534.654	14.39
534.992	14.3
535.331	14.35
535.67	14.2
536.008	14.11
536.346	14.25
536.685	14.16
537.023	14.02
537.361	13.82
537.7	13.75
538.038	13.65
538.376	13.67
538.714	13.67
539.052	13.6
539.39	13.51
539.728	13.49
540.066	13.48
540.404	13.36
540.741	13.23
541.079	13.27
541.417	13.29
541.755	13.21
542.092	13.18
542.43	13.26
542.767	13.29
543.105	13.34
543.442	13.29
543.78	13.15
544.117	13.14
544.454	13.13
544.792	12.96
545.129	13.06
545.466	13.05
545.803	13.17
546.14	13.05
546.477	13.12
546.814	13.07
547.151	13.06
547.488	13.02
547.825	12.91
548.162	12.89
548.499	12.85
548.835	12.92
549.172	13.05
549.509	13
549.845	12.96
550.182	13.05
550.518	13.02
550.855	12.98
551.191	13.03
551.528	13.11
551.864	13.11
552.2	13.16
552.537	13.19
552.873	13.14
553.209	13.12
553.545	12.96
553.881	12.97
554.217	12.91
554.553	12.87
554.889	12.87
555.225	12.85
555.561	12.7
555.896	12.73
556.232	12.81
556.568	12.77
556.903	12.81
557.239	12.76
557.575	12.73
557.91	12.66
558.245	12.75
558.581	12.66
558.916	12.74
559.252	12.79
559.587	12.71
559.922	12.61
560.257	12.67
560.592	12.7
560.928	12.61
561.263	12.68
561.598	12.71
561.933	12.72
562.267	12.77
562.602	12.84
562.937	12.92
563.272	12.89
563.607	12.81
563.941	13
564.276	12.99
564.611	12.96
564.945	13.01
565.28	13.04
565.614	13.12
565.949	13.12
566.283	13.15
566.617	13.12
566.951	13.1
567.286	13.06
567.62	13.02
567.954	13
568.288	13.04
568.622	13.06
568.956	13.04
569.29	13.1
569.624	13.08
569.958	13.17
570.292	13.25
570.626	13.27
570.959	13.39
571.293	13.43
571.627	13.51
571.96	13.65
572.294	13.61
572.627	13.62
572.961	13.63
573.294	13.61
573.627	13.65
573.961	13.68
574.294	13.69
574.627	13.81
574.961	13.81
575.294	13.9
575.627	13.9
575.96	13.99
576.293	14.05
576.626	14.12
576.959	14.16
577.292	14.21
577.624	14.31
577.957	14.44
578.29	14.51
578.623	14.6
578.955	14.68
579.288	14.6
579.62	14.63
579.953	14.64
580.285	14.62
580.618	14.72
580.95	14.8
581.282	14.83
581.615	14.92
581.947	14.92
582.279	15.01
582.611	15.1
582.943	15.09
583.275	15.13
583.607	15.26
583.939	15.34
584.271	15.33
584.603	15.37
584.935	15.35
585.267	15.37
585.598	15.38
585.93	15.38
586.262	15.41
586.593	15.34
586.925	15.37
587.256	15.46
587.588	15.57
587.919	15.7
588.25	15.84
588.582	15.88
588.913	15.91
589.244	16
589.575	16.21
589.907	16.29
590.238	16.45
590.569	16.56
590.9	16.59
591.231	16.65
591.562	16.73
591.892	16.74
592.223	16.99
592.554	17.15
592.885	17.3
593.215	17.54
593.546	17.61
593.877	17.75
594.207	17.82
594.538	17.87
594.868	18.09
595.198	18.13
595.529	18.25
595.859	18.3
596.189	18.37
596.52	18.41
596.85	18.58
597.18	18.65
597.51	18.76
597.84	18.86
598.17	18.96
598.5	18.97
598.83	19.09
599.16	19.19
599.489	19.38
599.819	19.58
600.149	19.75
600.479	19.92
600.808	20.13
601.138	20.31
601.467	20.41
601.797	20.66
602.126	20.87
602.456	21.16
602.785	21.38
603.114	21.46
603.443	21.75
603.773	21.88
604.102	22.17
604.431	22.27
604.76	22.47
605.089	22.69
605.418	22.86
605.747	23
606.076	23.08
606.405	23.27
606.733	23.57
607.062	23.66
607.391	24.03
607.72	24.27
608.048	24.61
608.377	24.96
608.705	25.21
609.034	25.61
609.362	25.86
609.69	26.15
610.019	26.39
610.347	26.64
610.675	26.75
611.004	27.03
611.332	27.33
611.66	27.61
611.988	27.87
612.316	28.05
612.644	28.5
612.972	28.83
613.3	29.09
613.627	29.51
613.955	29.92
614.283	30.34
614.611	30.81
614.938	31
615.266	31.49
615.593	31.67
615.921	32.04
616.248	32.32
616.576	32.59
616.903	32.9
617.23	33.13
617.558	33.74
617.885	34.26
618.212	34.56
618.539	34.98
618.866	35.44
619.193	35.69
619.52	36.08
619.847	36.34
620.174	36.54
620.501	36.88
620.828	36.89
621.155	36.92
621.481	37.19
621.808	37.49
622.135	37.65
622.461	37.89
622.788	37.84
623.114	38.25
623.441	38.45
623.767	38.81
624.093	38.99
624.42	39.32
624.746	39.65
625.072	40.05
625.398	40.36
625.725	40.3
626.051	40.33
626.377	40.76
626.703	41.06
627.029	41.35
627.354	41.89
627.68	42.37
628.006	42.52
628.332	42.92
628.658	43.21
628.983	43.43
629.309	43.93
629.634	44.02
629.96	44.23
630.285	44.46
630.611	44.64
630.936	45.01
631.262	45.23
631.587	45.29
631.912	45.82
632.237	46.14
632.562	46.41
632.887	46.74
633.213	47.01
633.538	47.33
633.863	47.53
634.187	47.45
634.512	47.63
634.837	47.89
635.162	48.29
635.487	48.68
635.811	48.55
636.136	49.12
636.461	49.43
636.785	49.42
637.11	50.28
637.434	50.65
637.758	51.01
638.083	51
638.407	51.44
638.731	51.78
639.056	52.13
639.38	52.48
639.704	52.79
640.028	53.31
640.352	53.31
640.676	53.57
641	53.81
641.324	54.1
641.648	54.08
641.972	54.34
642.295	55.63
642.619	56.17
642.943	56.1
643.266	56.03
643.59	55.61
643.913	56.1
644.237	55.97
644.56	55.7
644.884	55.76
645.207	55.69
645.53	55.16
645.854	55.63
646.177	56.19
646.5	56.43
646.823	56.42
647.146	56.81
647.469	56.77
647.792	57.38
648.115	56.71
648.438	57.4
648.761	58.39
649.084	58.9
649.406	59.04
649.729	58.7
650.052	58.63
650.374	58.64
650.697	58.7
651.019	58.83
651.342	58.93
651.664	59.11
651.987	59.09
652.309	59.16
652.631	59.41
652.953	59.74
653.276	59.81
653.598	60.06
653.92	59.95
654.242	59.88
654.564	59.92
654.886	60.07
655.208	59.99
655.53	60.15
655.851	60.05
656.173	60.18
656.495	60.18
656.816	59.93
657.138	59.8
657.46	59.99
657.781	61.12
658.103	62.3
658.424	62.01
658.746	61.83
659.067	61.81
659.388	62.31
659.709	62.04
660.031	61.98
660.352	61.84
660.673	61.92
660.994	61.1
661.315	60.75
661.636	60.84
661.957	61.17
662.278	61.45
662.599	61.59
662.919	61.2
663.24	62.06
663.561	61.81
663.881	61.76
664.202	61.82
664.523	61.63
664.843	61.62
665.164	61.06
665.484	60.91
665.804	61.17
666.125	61.36
666.445	62.63
666.765	63.46
667.085	63.79
667.405	63.29
667.726	64.16
668.046	64.01
668.366	64.76
668.686	64.16
669.005	64.45
669.325	64.9
669.645	64.53
669.965	64.17
670.285	64.84
670.604	64.62
670.924	64.88
671.243	64.27
671.563	64.26
671.882	63.88
672.202	64.03
672.521	64.55
672.841	64.41
673.16	65
673.479	65.25
673.798	65.42
674.117	65.17
674.437	64.13
674.756	63.2
675.075	63.08
675.394	63.24
675.713	62.72
676.031	62.6
676.35	62.26
676.669	62.92
676.988	62.52
677.306	61.97
677.625	61.68
677.944	62.42
678.262	62.03
678.581	62.28
678.899	62.88
679.218	62.84
679.536	63.06
679.854	63.27
680.172	62.75
680.491	62.09
680.809	61.94
681.127	61.86
681.445	61.85
681.763	61.51
682.081	61.69
682.399	61.96
682.717	61.94
683.035	62.13
683.352	61.86
683.67	61.93
683.988	62.65
684.306	62.8
684.623	62.49
684.941	63.16
685.258	63.33
685.576	64
685.893	63.54
686.211	63.46
686.528	63.41
686.845	62.81
687.162	62.45
687.48	62.29
687.797	61.71
688.114	62.39
688.431	62.26
688.748	62.99
689.065	62.72
689.382	62.2
689.699	62.96
690.015	63.35
690.332	63.45
690.649	63.75
690.966	63.9
691.282	63.83
691.599	63.44
691.915	62.81
692.232	63.5
692.548	63.43
692.865	62.66
693.181	63.2
693.497	63.14
693.813	63.9
694.13	63.88
694.446	64.47
694.762	64.68
695.078	65.3
695.394	65.31
695.71	66.34
696.026	65.74
696.342	66.96
696.658	66
696.973	66.02
697.289	66.62
697.605	65.73
697.92	65.23
698.236	65.63
698.551	65.88
698.867	64.72
699.182	65.49
699.498	66.57
699.813	67.22
700.128	66.29
700.444	66.86
700.759	66.91
701.074	65.06
701.389	64.85
701.704	64.7
702.019	64.95
702.334	64.12
702.649	64.58
702.964	64.07
703.279	64.2
703.594	63.83
703.908	64.85
704.223	63.38
704.538	64.42
704.852	65.91
705.167	66.3
705.481	66.72
705.796	66.62
706.11	65.84
706.425	66.16
706.739	67.06
707.053	67.33
707.368	66.68
707.682	66.91
707.996	66.68
708.31	66.69
708.624	67.13
708.938	69.95
709.252	70.68
709.566	69.85
709.88	69.43
710.193	69.95
710.507	69.13
710.821	70.21
711.135	69.54
711.448	69.8
711.762	69.18
712.075	70.98
712.389	71.49
712.702	70.74
713.015	69.74
713.329	69.48
713.642	69.54
713.955	69
714.269	68.99
714.582	68.58
714.895	68.38
715.208	68.69
715.521	67.22
715.834	67.29
716.147	67.49
716.459	68.61
716.772	66.52
717.085	66.5
717.398	66.71
717.71	66.38
718.023	65.89
718.336	65.99
718.648	65.47
718.961	66.19
719.273	65.16
719.585	65.96
719.898	64.8
720.21	64.25
720.522	64.48
720.834	64.8
721.147	64.51
721.459	65.11
721.771	67
722.083	66.84
722.395	67.5
722.707	67.38
723.019	66.97
723.33	68.12
723.642	67.54
723.954	66.86
724.265	66.59
724.577	67.07
724.889	66.83
725.2	67.04
725.512	68.01
725.823	67
726.135	66.62
726.446	66.92
726.757	66.24
727.068	67.62
727.38	67.44
727.691	67.2
728.002	66.01
728.313	64.93
728.624	64.5
728.935	64.34
729.246	63.59
729.557	63.17
729.867	63.47
730.178	62.9
730.489	63.08
730.8	63.26
731.11	62.39
731.421	62.68
731.731	62.78
732.042	61.96
732.352	61.4
732.663	60.72
732.973	61.2
733.283	59.98
733.594	60.48
733.904	61.41
734.214	61.63
734.524	61.83
734.834	60.79
735.144	59.87
735.454	59.78
735.764	59.46
736.074	60.48
736.384	61.07
736.694	61.22
737.003	63.18
737.313	62.95
737.623	62.33
737.932	62.51
738.242	61.23
738.551	60.59
738.861	61.31
739.17	62.47
739.479	62.53
739.789	61.63
740.098	61.69
740.407	61.18
740.716	60.18
741.025	61.35
741.334	61.7
741.643	59.01
741.952	57.91
742.261	57.63
742.57	58.07
742.879	59.09
743.188	57.15
743.497	58.28
743.805	56.56
744.114	55.81
744.422	56.13
744.731	52.54
745.04	53.56
745.348	55.19
745.656	54.08
745.965	53.32
746.273	53.47
746.581	54.01
746.889	54.44
747.198	54.11
747.506	57
747.814	57.59
748.122	57.64
748.43	58.16
748.738	59.25
749.046	59.26
749.353	60.71
749.661	59.47
749.969	61.05
750.277	61.46
750.584	60.38
750.892	62.43
751.199	62.58
751.507	63.15
751.814	64.49
752.122	63.59
752.429	63.84
752.736	62.61
753.044	61.8
753.351	62.51
753.658	63.49
753.965	63.65
754.272	62.71
754.579	63.27
754.886	64.19
755.193	63.4
755.5	64.09
755.807	64.45
756.114	65.43
756.42	62.9
756.727	61.63
757.034	61.9
757.34	61.32
757.647	60.38
757.953	60.5
758.26	59.92
758.566	58.99
758.872	60.33
759.179	59.45
759.485	57.51
759.791	56.18
760.097	53.83
760.403	53.22
760.709	52.73
761.015	52.35
761.321	51.5
761.627	53.07
761.933	51.6
762.239	51.04
762.545	50.16
762.851	49.93
763.156	48.11
763.462	48.89
763.767	47.66
764.073	49.66
764.378	51.4
764.684	52.4
764.989	52.51
765.295	53.37
765.6	52.17
765.905	54.87
766.21	55.44
766.515	52.58
766.821	54.12
767.126	55.33
767.431	60.61
767.736	67.89
768.041	69.87
768.345	69.7
768.65	69.31
768.955	69.09
769.26	67.09
769.564	70.75
769.869	68.21
770.174	67.15
770.478	67.75
770.783	66.91
771.087	68.27
771.391	68.48
771.696	69.77
772	72.9
772.304	71.96
772.608	76.26
772.913	74.85
773.217	74.66
773.521	73.18
773.825	70.72
774.129	69.55
774.433	66.61
774.736	63.43
775.04	63.28
775.344	58.68
775.648	54.5
775.951	52.51
776.255	54.29
776.559	55.24
776.862	54.75
777.166	57.66
777.469	58.7
777.772	58.78
778.076	57.24
778.379	58.38
778.682	55.33
778.985	50.35
779.289	49.07
779.592	46.54
779.895	45.64
780.198	43.07
780.501	43.55
780.804	39.51
781.106	42.47
781.409	41.56
781.712	44.21
782.015	44.95
782.317	45.72
782.62	43.49
782.923	39.64
783.225	45.09
783.527	44.75
783.83	42.64
784.132	49
784.435	46.31
784.737	43.16
785.039	42.05
785.341	41.11
785.643	35.5
785.945	35.8
786.248	44.58
786.55	44.78
786.851	42.74
787.153	41.4
787.455	43.01
787.757	48.14
788.059	44.98
788.36	54.29
788.662	56.22
788.964	60.01
789.265	56.57
789.567	58.35
789.868	59.25
790.17	62.26
790.471	63.49
790.772	62.74
791.074	62.56
791.375	65.93
791.676	57
791.977	60.15
792.278	55.72
792.579	59.04
792.88	60.51
793.181	62.08
793.482	66
793.783	58.44
794.083	59.63
794.384	67.31
794.685	68.25
794.986	62.84
795.286	58.58
795.587	57.28
795.887	53.66
796.188	46.96
796.488	49.38
796.788	51.22
797.089	48.8
797.389	44.88
797.689	38.83
797.989	39.71
798.289	30.79
798.589	27.98
798.889	24.13
799.189	15.94
799.489	13.58
799.789	15.45
800.089	4.34
800.389	14.41
800.688	15.66
800.988	12.06
801.288	2.83
801.587	6.6
801.887	-5.47
802.186	-13.14
802.486	-15.58
802.785	-13.37
803.085	-6.04
803.384	-18.64
803.683	-20.73
803.982	-26.61
804.281	-22.75
804.58	-16.54
804.879	-11.11
805.178	-0.04
805.477	7.1
805.776	15.15
806.075	14.37
806.374	9.16
806.673	29.28
806.971	29.54
807.27	42.26
807.569	52.87
807.867	38.23
808.166	41.44
808.464	42.3
808.763	49.41
809.061	52.07
809.359	66.89
809.658	89.7
809.956	105.18
810.254	99.88
810.552	121.89
810.85	122.06
811.148	111.68
811.446	122.77
811.744	105.25
812.042	128.94
812.34	113.24
812.638	118.47
812.935	133.93
813.233	143.51
813.531	128.71
813.828	135.84
814.126	137.15
814.423	143.45
814.721	140.89
815.018	154.24
815.316	158.28
815.613	139.1
815.91	162.12
816.207	157.7
816.504	137.05
816.802	104.18
817.099	79.88
817.396	55.18
817.693	63.89
817.99	64.45
818.286	53.84
818.583	58.45
818.88	56.88
819.177	39.51
819.473	38.39
819.77	46.76
820.067	26.04
820.363	26.66
820.66	25.96
820.956	28.5
821.252	4.33
821.549	-19.33
821.845	1.97
822.141	-6.11
822.437	7.53
822.734	19.5
823.03	14.99
823.326	5.46
823.622	15.03
823.918	14.85
824.213	23.05
824.509	30.46
824.805	38.59
825.101	34.09
825.397	34.23
825.692	22.32
825.988	3.08
826.283	19.12
826.579	30.4
826.874	36.22
827.17	32.67
827.465	52.57
827.76	83.84
828.056	88.57
828.351	92.58
828.646	90.79
828.941	110.41
829.236	87.43
829.531	93.02
829.826	73.76
830.121	74.93
830.416	74.01
830.711	75.03
831.006	67.11
831.3	62.63
831.595	51.18
831.89	39.68
832.184	38.53
832.479	41.89
832.773	38.86
833.068	49.7
833.362	63.17
833.656	45.39
833.951	38.31
834.245	30.82
834.539	13.13
834.833	-0.4
835.127	-12.54
835.421	-24.33
835.715	-10.25
836.009	-3.76
836.303	-16.79
836.597	-12.6
836.891	-14.06
837.185	-11.14
837.478	-26.96
837.772	-19.48
838.066	-19.69
838.359	-32.47
838.653	-38.38
838.946	-20.84
839.24	-16.47
839.533	-11.62
839.826	-8.9
840.119	-3.78
840.413	-12.24
840.706	-30.78
840.999	-39.73
841.292	-35.79
841.585	-23.21
841.878	-1.33
842.171	4.52
842.464	-12.62
842.757	-6.02
843.049	-5.74
843.342	-10.49
843.635	-6.64
843.927	9.27
844.22	4.47
844.513	-7.79
844.805	-3.27
845.098	-7.13
845.39	-4.97
845.682	22.91
845.975	28.02
846.267	37.6
846.559	39.37
846.851	39.93
847.143	30.91
847.435	25.3
847.727	13.64
848.019	17.95
848.311	29.45
848.603	29.96
848.895	40.88
849.186	36.43
849.478	31.02
849.77	50.79
850.061	45.11
850.353	44.18
850.645	45.44
850.936	56.66
851.227	44.72
851.519	50.36
851.81	54.5
852.101	56.47
852.393	51.94
852.684	51.74
852.975	59.77
853.266	43.68
853.557	19.12
853.848	8.82
854.139	14.87
854.43	4.77
854.72	2.93
855.011	8.66
855.302	8.87
855.593	9.11
855.883	-9.75
856.174	-33.38
856.464	-33.52
856.755	-49.55
857.045	-64.91
857.336	-53.66
857.626	-119.09
857.916	-39.34
858.206	-64.66
858.497	-51.33
858.787	-48.53
859.077	-36.32
859.367	-31.72
859.657	-18.45
859.947	-19.71
860.237	-41.44
860.527	-26.5
860.816	-21.06
861.106	8.51
861.396	-16.2
861.685	4.05
861.975	-19.06
862.265	-30.67
862.554	-39.65
862.844	-110.65
863.133	-113.43
863.422	-66.72
863.712	-32.9
864.001	-6.37
864.29	-8.96
864.579	-22.61
864.868	-12.59
865.157	-35.82
865.446	-35.26
865.735	-39.8
866.024	-62.44
866.313	-80.38
866.602	-109.47
866.891	-180.67
867.179	-233.4
867.468	-157.51
