Data from T1_Reflection__11__13-30-21-057.txt Node

Date: Thu Jun 03 13:30:21 CEST 2021
User: mabdelazizm
Spectrometer: FLMS18565
Trigger mode: 0
Integration Time (sec): 2.000000E0
Scans to average: 1
Electric dark correction enabled: true
Nonlinearity correction enabled: false
Boxcar width: 12
XAxis mode: Wavelengths
Number of Pixels in Spectrum: 2048
>>>>>Begin Spectral Data<<<<<
179.071	-8.07
179.452	34.34
179.833	36.77
180.214	56.65
180.595	38.63
180.977	35.98
181.358	16.51
181.739	6.85
182.12	9.34
182.501	-30.49
182.882	-42.49
183.262	-35.68
183.643	-16.43
184.024	-2.73
184.405	14.4
184.786	10.87
185.166	25.92
185.547	18.13
185.927	16.35
186.308	18.58
186.689	19.78
187.069	24
187.449	26.56
187.83	21.92
188.21	14.83
188.59	12.25
188.971	9.61
189.351	9.95
189.731	5.97
190.111	10.29
190.491	6.17
190.871	11.38
191.251	13.8
191.631	12.65
192.011	14.43
192.391	13.91
192.771	15.06
193.151	15.92
193.531	15.41
193.91	13.21
194.29	12.59
194.67	10.43
195.049	10.49
195.429	8.61
195.808	7.19
196.188	7.88
196.567	5.63
196.946	5.68
197.326	6.52
197.705	7.64
198.084	7.84
198.464	5.73
198.843	5.89
199.222	5.44
199.601	4.9
199.98	6.58
200.359	5.44
200.738	5.55
201.117	6.45
201.496	6.86
201.875	7.84
202.254	7.34
202.632	5.83
203.011	4.4
203.39	5.56
203.768	7.06
204.147	7.12
204.525	6.69
204.904	6.92
205.282	7.73
205.661	6.17
206.039	7.56
206.418	8.02
206.796	9.84
207.174	9.14
207.552	8.92
207.931	8.36
208.309	8.14
208.687	7.62
209.065	8.82
209.443	8.81
209.821	7.18
210.199	6.59
210.577	7.13
210.954	6.81
211.332	4.9
211.71	4.61
212.088	6.3
212.465	6.52
212.843	5.77
213.221	5.48
213.598	5.89
213.976	6.4
214.353	6.66
214.731	7.02
215.108	8.61
215.485	7.38
215.863	6.45
216.24	5.96
216.617	6.96
216.994	7.37
217.371	7.21
217.749	6.12
218.126	7.05
218.503	6.33
218.88	6.81
219.256	8.07
219.633	7.73
220.01	6.38
220.387	6.82
220.764	7.11
221.14	6.71
221.517	5.73
221.894	5.59
222.27	5.28
222.647	4.78
223.023	4.47
223.4	3.9
223.776	3.98
224.153	4.11
224.529	3.69
224.905	4.06
225.282	4.23
225.658	4.09
226.034	3.67
226.41	3.85
226.786	3.91
227.162	3.83
227.538	3.51
227.914	3.21
228.29	3.12
228.666	2.74
229.042	2.72
229.418	2.82
229.793	2.83
230.169	2.95
230.545	2.81
230.92	2.96
231.296	2.74
231.672	2.78
232.047	2.75
232.422	2.77
232.798	2.84
233.173	2.77
233.549	2.46
233.924	2.34
234.299	2.03
234.674	2
235.05	1.9
235.425	1.92
235.8	1.78
236.175	1.79
236.55	1.85
236.925	1.81
237.3	1.83
237.675	1.82
238.049	1.9
238.424	1.9
238.799	1.95
239.174	1.83
239.548	1.73
239.923	1.77
240.297	1.63
240.672	1.74
241.046	1.76
241.421	1.74
241.795	1.72
242.17	1.74
242.544	1.76
242.918	1.78
243.293	1.83
243.667	1.88
244.041	1.89
244.415	1.89
244.789	1.83
245.163	1.82
245.537	1.78
245.911	1.73
246.285	1.68
246.659	1.66
247.033	1.63
247.406	1.58
247.78	1.51
248.154	1.44
248.528	1.42
248.901	1.4
249.275	1.39
249.648	1.45
250.022	1.54
250.395	1.51
250.769	1.53
251.142	1.49
251.515	1.43
251.888	1.43
252.262	1.4
252.635	1.35
253.008	1.34
253.381	1.34
253.754	1.37
254.127	1.38
254.5	1.35
254.873	1.4
255.246	1.49
255.619	1.53
255.992	1.57
256.364	1.53
256.737	1.51
257.11	1.51
257.483	1.53
257.855	1.57
258.228	1.6
258.6	1.6
258.973	1.53
259.345	1.41
259.718	1.38
260.09	1.37
260.462	1.43
260.834	1.43
261.207	1.38
261.579	1.42
261.951	1.44
262.323	1.41
262.695	1.37
263.067	1.35
263.439	1.34
263.811	1.33
264.183	1.29
264.555	1.23
264.927	1.22
265.298	1.21
265.67	1.21
266.042	1.21
266.413	1.2
266.785	1.2
267.156	1.21
267.528	1.21
267.899	1.22
268.271	1.23
268.642	1.24
269.013	1.23
269.385	1.26
269.756	1.14
270.127	1.14
270.498	1.12
270.87	1.07
271.241	1.08
271.612	1.1
271.983	1.09
272.354	1.05
272.724	1.05
273.095	1.02
273.466	1.01
273.837	0.96
274.208	0.98
274.578	0.99
274.949	1.02
275.32	1.04
275.69	1.05
276.061	1.02
276.431	0.98
276.802	0.97
277.172	0.97
277.542	0.93
277.913	0.94
278.283	0.92
278.653	0.85
279.023	0.96
279.394	0.96
279.764	0.96
280.134	0.94
280.504	0.91
280.874	0.89
281.244	0.9
281.614	0.89
281.983	0.87
282.353	0.87
282.723	0.88
283.093	0.88
283.462	0.8
283.832	0.79
284.202	0.79
284.571	0.79
284.941	0.83
285.31	0.8
285.68	0.79
286.049	0.8
286.418	0.72
286.788	0.78
287.157	0.72
287.526	0.81
287.895	0.82
288.264	0.83
288.633	0.76
289.002	0.78
289.371	0.83
289.74	0.85
290.109	0.84
290.478	0.83
290.847	0.76
291.216	0.8
291.585	0.8
291.953	0.73
292.322	0.75
292.691	0.76
293.059	0.69
293.428	0.66
293.796	0.65
294.165	0.57
294.533	0.57
294.901	0.57
295.27	0.5
295.638	0.57
296.006	0.48
296.374	0.52
296.743	0.47
297.111	0.44
297.479	0.37
297.847	0.37
298.215	0.3
298.583	0.31
298.95	0.28
299.318	0.31
299.686	0.32
300.054	0.44
300.422	0.37
300.789	0.37
301.157	0.41
301.525	0.43
301.892	0.42
302.26	0.5
302.627	0.5
302.994	0.5
303.362	0.55
303.729	0.62
304.097	0.62
304.464	0.64
304.831	0.64
305.198	0.65
305.565	0.64
305.932	0.63
306.299	0.64
306.666	0.63
307.033	0.68
307.4	0.78
307.767	0.69
308.134	0.65
308.501	0.65
308.867	0.65
309.234	0.61
309.601	0.63
309.967	0.67
310.334	0.7
310.701	0.65
311.067	0.62
311.433	0.55
311.8	0.57
312.166	0.55
312.533	0.52
312.899	0.47
313.265	0.47
313.631	0.44
313.997	0.43
314.363	0.46
314.729	0.47
315.096	0.44
315.461	0.49
315.827	0.47
316.193	0.48
316.559	0.45
316.925	0.46
317.291	0.5
317.656	0.49
318.022	0.49
318.388	0.48
318.753	0.45
319.119	0.38
319.484	0.36
319.85	0.36
320.215	0.4
320.581	0.43
320.946	0.41
321.311	0.37
321.676	0.38
322.042	0.42
322.407	0.43
322.772	0.45
323.137	0.45
323.502	0.46
323.867	0.41
324.232	0.44
324.597	0.42
324.962	0.46
325.327	0.38
325.691	0.42
326.056	0.43
326.421	0.43
326.785	0.42
327.15	0.42
327.514	0.38
327.879	0.42
328.243	0.47
328.608	0.45
328.972	0.46
329.337	0.5
329.701	0.51
330.065	0.51
330.429	0.51
330.794	0.5
331.158	0.45
331.522	0.41
331.886	0.43
332.25	0.37
332.614	0.35
332.978	0.32
333.342	0.28
333.705	0.21
334.069	0.2
334.433	0.29
334.797	0.2
335.16	0.18
335.524	0.22
335.887	0.19
336.251	0.17
336.614	0.17
336.978	0.11
337.341	0.1
337.705	0.1
338.068	0.09
338.431	0.07
338.794	0.05
339.158	0.02
339.521	0.04
339.884	0.02
340.247	0.07
340.61	0.05
340.973	0.06
341.336	0.07
341.699	0.06
342.062	0.11
342.424	0.06
342.787	0.1
343.15	0.11
343.512	0.1
343.875	0.08
344.238	0.1
344.6	0.07
344.963	0.1
345.325	0.11
345.688	0.15
346.05	0.15
346.412	0.15
346.775	0.15
347.137	0.15
347.499	0.13
347.861	0.17
348.223	0.18
348.585	0.2
348.947	0.22
349.309	0.19
349.671	0.19
350.033	0.16
350.395	0.16
350.757	0.22
351.118	0.18
351.48	0.3
351.842	0.25
352.203	0.24
352.565	0.19
352.927	0.27
353.288	0.26
353.65	0.22
354.011	0.21
354.372	0.18
354.734	0.14
355.095	0.21
355.456	0.27
355.817	0.28
356.179	0.27
356.54	0.27
356.901	0.22
357.262	0.21
357.623	0.18
357.984	0.16
358.345	0.17
358.705	0.18
359.066	0.15
359.427	0.16
359.788	0.12
360.148	0.16
360.509	0.1
360.87	0.1
361.23	0.06
361.591	0.07
361.951	-0.01
362.312	0
362.672	-0
363.032	0.08
363.393	0.09
363.753	0.1
364.113	0.03
364.473	-0
364.833	-0.01
365.193	-0.02
365.553	-0.01
365.913	-0.02
366.273	-0.01
366.633	0.03
366.993	-0.01
367.353	-0.06
367.713	-0.02
368.072	-0.03
368.432	0.04
368.792	0
369.151	-0.03
369.511	-0.07
369.87	0.03
370.23	0.05
370.589	0.04
370.949	0.12
371.308	0.12
371.667	0.12
372.027	0.05
372.386	0.08
372.745	0.08
373.104	0.14
373.463	0.13
373.822	0.1
374.181	0.1
374.54	0.09
374.899	0.1
375.258	0.03
375.617	-0.03
375.975	0.04
376.334	0.1
376.693	0.11
377.052	0.17
377.41	0.13
377.769	0.17
378.127	0.14
378.486	0.2
378.844	0.14
379.202	0.17
379.561	0.19
379.919	0.14
380.277	0.1
380.636	0.13
380.994	0.11
381.352	0.1
381.71	0.18
382.068	0.14
382.426	0.1
382.784	0.12
383.142	0.14
383.5	0.14
383.857	0.17
384.215	0.23
384.573	0.24
384.931	0.2
385.288	0.16
385.646	0.17
386.003	0.13
386.361	0.11
386.718	0.18
387.076	0.2
387.433	0.24
387.791	0.24
388.148	0.28
388.505	0.27
388.862	0.37
389.22	0.48
389.577	0.44
389.934	0.51
390.291	0.53
390.648	0.52
391.005	0.61
391.362	0.58
391.718	0.59
392.075	0.56
392.432	0.6
392.789	0.59
393.145	0.61
393.502	0.63
393.859	0.63
394.215	0.68
394.572	0.68
394.928	0.72
395.285	0.72
395.641	0.71
395.997	0.77
396.354	0.72
396.71	0.74
397.066	0.77
397.422	0.8
397.778	0.84
398.134	0.8
398.491	0.93
398.846	0.99
399.202	1
399.558	1.03
399.914	1.05
400.27	1.28
400.626	1.35
400.981	1.52
401.337	1.63
401.693	1.76
402.048	1.89
402.404	2.02
402.759	2.16
403.115	2.29
403.47	2.48
403.826	2.63
404.181	2.84
404.536	2.95
404.892	3.08
405.247	3.3
405.602	3.56
405.957	3.67
406.312	3.78
406.667	3.95
407.022	4.22
407.377	4.41
407.732	4.62
408.087	4.85
408.442	5.15
408.796	5.38
409.151	5.54
409.506	5.79
409.86	6
410.215	6.27
410.57	6.55
410.924	6.79
411.279	7.05
411.633	7.39
411.987	7.78
412.342	8.02
412.696	8.34
413.05	8.7
413.404	9.09
413.758	9.56
414.113	9.93
414.467	10.28
414.821	10.69
415.175	11.2
415.529	11.68
415.882	12.15
416.236	12.48
416.59	13.02
416.944	13.5
417.298	13.96
417.651	14.51
418.005	15.06
418.358	15.6
418.712	16.14
419.065	16.7
419.419	17.26
419.772	17.86
420.126	18.44
420.479	19
420.832	19.53
421.185	20.16
421.539	20.73
421.892	21.29
422.245	21.89
422.598	22.41
422.951	23.01
423.304	23.54
423.657	24.21
424.01	24.88
424.363	25.51
424.715	26.23
425.068	27.01
425.421	27.64
425.773	28.31
426.126	28.95
426.479	29.43
426.831	29.99
427.184	30.65
427.536	31.21
427.889	31.76
428.241	32.4
428.593	33.04
428.945	33.63
429.298	34.23
429.65	34.74
430.002	35.28
430.354	35.81
430.706	36.44
431.058	36.91
431.41	37.58
431.762	38.16
432.114	38.77
432.466	39.32
432.817	39.86
433.169	40.33
433.521	40.75
433.872	41.2
434.224	41.58
434.576	41.97
434.927	42.47
435.279	42.92
435.63	43.45
435.981	43.84
436.333	44.35
436.684	44.68
437.035	45.06
437.387	45.31
437.738	45.63
438.089	45.97
438.44	46.29
438.791	46.72
439.142	47.09
439.493	47.46
439.844	47.79
440.195	47.93
440.545	48.12
440.896	48.42
441.247	48.6
441.598	48.88
441.948	49.2
442.299	49.51
442.649	49.67
443	49.93
443.35	50.1
443.701	50.19
444.051	50.48
444.401	50.61
444.752	50.82
445.102	50.83
445.452	51.11
445.802	51.26
446.152	51.43
446.502	51.59
446.852	51.64
447.202	51.67
447.552	51.73
447.902	51.89
448.252	51.83
448.602	52.25
448.952	52.35
449.301	52.49
449.651	52.61
450.001	52.67
450.35	52.68
450.7	52.64
451.049	52.63
451.399	52.85
451.748	52.95
452.097	53
452.447	53.11
452.796	53.16
453.145	53.1
453.494	53.08
453.843	53.16
454.193	53.09
454.542	53.2
454.891	53.14
455.239	53.12
455.588	53.12
455.937	53.21
456.286	53.14
456.635	53.09
456.984	53.12
457.332	52.74
457.681	52.74
458.03	52.67
458.378	52.41
458.727	52.41
459.075	52.38
459.423	52.61
459.772	52.55
460.12	52.45
460.468	52.33
460.817	52.3
461.165	52.27
461.513	52.07
461.861	52.01
462.209	51.77
462.557	51.7
462.905	51.58
463.253	51.4
463.601	51.48
463.949	51.36
464.297	51.33
464.644	51.21
464.992	51
465.34	50.9
465.687	50.82
466.035	50.61
466.383	50.44
466.73	50.2
467.078	50.32
467.425	50.23
467.772	50.03
468.12	49.7
468.467	49.45
468.814	49.18
469.161	48.97
469.508	48.78
469.856	48.54
470.203	48.46
470.55	48.21
470.897	48.07
471.243	47.9
471.59	47.78
471.937	47.51
472.284	47.33
472.631	47.14
472.977	46.91
473.324	46.75
473.671	46.7
474.017	46.47
474.364	46.23
474.71	46.14
475.057	45.99
475.403	45.82
475.749	45.54
476.096	45.27
476.442	45.06
476.788	44.94
477.134	44.83
477.48	44.73
477.826	44.58
478.172	44.44
478.518	44.3
478.864	44.02
479.21	43.93
479.556	43.79
479.902	43.69
480.248	43.49
480.593	43.4
480.939	43.11
481.285	42.89
481.63	42.71
481.976	42.47
482.321	42.24
482.667	42.12
483.012	41.97
483.357	41.77
483.703	41.56
484.048	41.44
484.393	41.26
484.738	41.25
485.084	41.12
485.429	40.86
485.774	40.7
486.119	40.51
486.464	40.28
486.808	40.06
487.153	39.83
487.498	39.73
487.843	39.57
488.188	39.43
488.532	39.1
488.877	38.85
489.222	38.64
489.566	38.52
489.911	38.32
490.255	38.15
490.6	38.01
490.944	37.85
491.288	37.63
491.633	37.44
491.977	37.27
492.321	37.15
492.665	36.92
493.009	36.7
493.353	36.45
493.697	36.24
494.041	36.11
494.385	35.92
494.729	35.79
495.073	35.66
495.417	35.4
495.76	35.31
496.104	35.08
496.448	34.85
496.791	34.59
497.135	34.44
497.479	34.22
497.822	34.05
498.165	33.86
498.509	33.74
498.852	33.51
499.196	33.28
499.539	33.08
499.882	32.92
500.225	32.79
500.568	32.58
500.911	32.41
501.254	32.28
501.597	32.13
501.94	31.91
502.283	31.77
502.626	31.6
502.969	31.39
503.312	31.17
503.654	30.98
503.997	30.89
504.34	30.63
504.682	30.5
505.025	30.4
505.367	30.27
505.71	30.12
506.052	29.98
506.395	29.74
506.737	29.55
507.079	29.4
507.421	29.19
507.764	29.06
508.106	28.82
508.448	28.59
508.79	28.36
509.132	28.21
509.474	27.97
509.816	27.78
510.158	27.55
510.499	27.45
510.841	27.29
511.183	27.09
511.525	27.01
511.866	26.9
512.208	26.74
512.549	26.65
512.891	26.55
513.232	26.4
513.574	26.22
513.915	26.11
514.256	25.93
514.598	25.75
514.939	25.74
515.28	25.55
515.621	25.41
515.962	25.34
516.303	25.26
516.644	25.21
516.985	25.07
517.326	24.93
517.667	24.87
518.008	24.88
518.349	24.77
518.69	24.64
519.03	24.41
519.371	24.17
519.712	24.07
520.052	23.88
520.393	23.71
520.733	23.61
521.074	23.5
521.414	23.34
521.754	23.25
522.095	23.14
522.435	23.02
522.775	22.99
523.115	22.86
523.455	22.65
523.795	22.6
524.135	22.46
524.475	22.28
524.815	22.1
525.155	22.03
525.495	21.98
525.835	21.89
526.175	21.76
526.514	21.68
526.854	21.65
527.194	21.63
527.533	21.61
527.873	21.65
528.212	21.59
528.552	21.52
528.891	21.48
529.23	21.45
529.57	21.29
529.909	21.3
530.248	21.17
530.587	21.1
530.927	21.01
531.266	20.88
531.605	20.92
531.944	20.8
532.283	20.63
532.621	20.52
532.96	20.57
533.299	20.47
533.638	20.41
533.977	20.26
534.315	20.17
534.654	20.03
534.992	19.86
535.331	19.82
535.67	19.77
536.008	19.62
536.346	19.7
536.685	19.61
537.023	19.5
537.361	19.32
537.7	19.3
538.038	19.18
538.376	18.97
538.714	18.86
539.052	18.71
539.39	18.58
539.728	18.41
540.066	18.28
540.404	18.16
540.741	18.11
541.079	18.06
541.417	17.98
541.755	17.92
542.092	17.83
542.43	17.88
542.767	17.87
543.105	17.94
543.442	17.89
543.78	17.73
544.117	17.81
544.454	17.81
544.792	17.61
545.129	17.57
545.466	17.6
545.803	17.74
546.14	17.7
546.477	17.7
546.814	17.83
547.151	17.95
547.488	18.02
547.825	18
548.162	18.22
548.499	18.18
548.835	18.24
549.172	18.25
549.509	18.3
549.845	18.23
550.182	18.36
550.518	18.27
550.855	18.23
551.191	18.16
551.528	18.1
551.864	18.09
552.2	18.2
552.537	18.11
552.873	18.16
553.209	18.06
553.545	17.99
553.881	17.98
554.217	17.78
554.553	17.66
554.889	17.64
555.225	17.59
555.561	17.43
555.896	17.33
556.232	17.34
556.568	17.26
556.903	17.46
557.239	17.35
557.575	17.44
557.91	17.45
558.245	17.53
558.581	17.5
558.916	17.58
559.252	17.61
559.587	17.7
559.922	17.64
560.257	17.69
560.592	17.68
560.928	17.82
561.263	17.77
561.598	17.84
561.933	17.93
562.267	18.01
562.602	18.16
562.937	18.26
563.272	18.38
563.607	18.47
563.941	18.51
564.276	18.7
564.611	18.74
564.945	18.68
565.28	18.55
565.614	18.68
565.949	18.76
566.283	18.79
566.617	18.93
566.951	19.02
567.286	19.08
567.62	19.16
567.954	19.17
568.288	19.23
568.622	19.26
568.956	19.26
569.29	19.21
569.624	19.25
569.958	19.31
570.292	19.36
570.626	19.4
570.959	19.42
571.293	19.49
571.627	19.52
571.96	19.64
572.294	19.78
572.627	19.79
572.961	19.82
573.294	19.95
573.627	20.09
573.961	20.2
574.294	20.2
574.627	20.3
574.961	20.34
575.294	20.34
575.627	20.3
575.96	20.3
576.293	20.43
576.626	20.53
576.959	20.63
577.292	20.65
577.624	20.69
577.957	20.82
578.29	20.91
578.623	20.96
578.955	21.06
579.288	21.2
579.62	21.26
579.953	21.37
580.285	21.37
580.618	21.51
580.95	21.61
581.282	21.79
581.615	21.85
581.947	21.85
582.279	21.97
582.611	22.02
582.943	22.04
583.275	22.1
583.607	22.29
583.939	22.45
584.271	22.59
584.603	22.65
584.935	22.78
585.267	22.78
585.598	22.93
585.93	22.98
586.262	23.05
586.593	23.17
586.925	23.4
587.256	23.57
587.588	23.64
587.919	23.8
588.25	23.95
588.582	24.07
588.913	24.11
589.244	24.18
589.575	24.36
589.907	24.49
590.238	24.68
590.569	24.78
590.9	24.97
591.231	25.08
591.562	25.22
591.892	25.33
592.223	25.57
592.554	25.84
592.885	26.05
593.215	26.17
593.546	26.38
593.877	26.6
594.207	26.76
594.538	26.92
594.868	27.13
595.198	27.21
595.529	27.35
595.859	27.55
596.189	27.67
596.52	27.87
596.85	28.02
597.18	28.27
597.51	28.43
597.84	28.44
598.17	28.71
598.5	28.84
598.83	29.03
599.16	29.23
599.489	29.4
599.819	29.6
600.149	29.74
600.479	30.02
600.808	30.19
601.138	30.42
601.467	30.59
601.797	30.86
602.126	31
602.456	31.37
602.785	31.66
603.114	31.91
603.443	32.08
603.773	32.24
604.102	32.44
604.431	32.65
604.76	32.82
605.089	33.06
605.418	33.23
605.747	33.45
606.076	33.63
606.405	33.87
606.733	34.25
607.062	34.41
607.391	34.75
607.72	35.1
608.048	35.37
608.377	35.83
608.705	36.14
609.034	36.4
609.362	36.67
609.69	37.2
610.019	37.55
610.347	37.96
610.675	38.31
611.004	38.55
611.332	38.73
611.66	39.23
611.988	39.51
612.316	39.83
612.644	40.12
612.972	40.4
613.3	40.58
613.627	40.83
613.955	41.12
614.283	41.56
614.611	41.91
614.938	41.99
615.266	42.51
615.593	42.75
615.921	43.17
616.248	43.74
616.576	44.06
616.903	44.27
617.23	44.57
617.558	45.04
617.885	45.32
618.212	45.6
618.539	45.85
618.866	46.22
619.193	46.31
619.52	46.77
619.847	47.13
620.174	47.58
620.501	47.68
620.828	47.78
621.155	47.99
621.481	48.42
621.808	48.7
622.135	49.16
622.461	49.29
622.788	49.52
623.114	50.11
623.441	50.09
623.767	50.54
624.093	50.76
624.42	50.93
624.746	51.43
625.072	51.72
625.398	52.3
625.725	52.5
626.051	52.61
626.377	53.03
626.703	53.38
627.029	53.41
627.354	53.91
627.68	53.92
628.006	53.8
628.332	54.27
628.658	54.66
628.983	55.05
629.309	55.53
629.634	55.64
629.96	55.81
630.285	55.68
630.611	55.55
630.936	55.27
631.262	55.05
631.587	55.45
631.912	55.16
632.237	55.46
632.562	55.92
632.887	56.43
633.213	57.32
633.538	57.31
633.863	57.07
634.187	57.47
634.512	57.78
634.837	57.94
635.162	58.47
635.487	58.88
635.811	59.02
636.136	59.73
636.461	59.82
636.785	59.86
637.11	60.58
637.434	61.06
637.758	61.75
638.083	62.47
638.407	63.11
638.731	64.67
639.056	65.21
639.38	65.45
639.704	65.71
640.028	66.57
640.352	66.95
640.676	66.78
641	66.37
641.324	66.23
641.648	66.5
641.972	66.99
642.295	67.5
642.619	67.5
642.943	67.84
643.266	67.66
643.59	67.73
643.913	68.11
644.237	68.03
644.56	67.72
644.884	67.91
645.207	67.71
645.53	67.4
645.854	67.65
646.177	67.35
646.5	67.62
646.823	67.16
647.146	67.56
647.469	67.91
647.792	68.36
648.115	68.22
648.438	68.44
648.761	70.23
649.084	71.47
649.406	72.07
649.729	72.18
650.052	72.04
650.374	72.22
650.697	72.38
651.019	72.64
651.342	72.88
651.664	72.89
651.987	72.96
652.309	73.01
652.631	73.06
652.953	73.4
653.276	73.49
653.598	73.57
653.92	73.5
654.242	73.55
654.564	73.48
654.886	73.67
655.208	73.73
655.53	73.67
655.851	73.48
656.173	73.38
656.495	73.5
656.816	73.16
657.138	72.8
657.46	72.9
657.781	73.28
658.103	74.28
658.424	73.9
658.746	74.03
659.067	73.33
659.388	73.27
659.709	73.37
660.031	73.31
660.352	73
660.673	72.92
660.994	71.62
661.315	71.59
661.636	71.6
661.957	71.74
662.278	73.1
662.599	74.01
662.919	73.65
663.24	74.17
663.561	74.1
663.881	74.25
664.202	75.08
664.523	74.55
664.843	74.45
665.164	74.48
665.484	73.83
665.804	74.06
666.125	74.53
666.445	75.43
666.765	75.93
667.085	76.24
667.405	75.74
667.726	76.18
668.046	76.66
668.366	77.24
668.686	77.37
669.005	77.93
669.325	77.46
669.645	77.11
669.965	76.71
670.285	75.72
670.604	75.07
670.924	75.53
671.243	74.48
671.563	74.95
671.882	75.01
672.202	74.9
672.521	75.4
672.841	74.76
673.16	74.54
673.479	74.12
673.798	74.26
674.117	74.03
674.437	73.55
674.756	73.14
675.075	72.81
675.394	72.99
675.713	72.72
676.031	72.46
676.35	72.22
676.669	72.52
676.988	72.16
677.306	72.74
677.625	72.53
677.944	73.37
678.262	73.67
678.581	74.29
678.899	74.06
679.218	74.06
679.536	74.62
679.854	74.12
680.172	74.31
680.491	73.63
680.809	73.92
681.127	74.07
681.445	74.12
681.763	73.69
682.081	73.62
682.399	73.73
682.717	73.44
683.035	74.11
683.352	74.07
683.67	73.78
683.988	74.3
684.306	73.9
684.623	73.12
684.941	73.68
685.258	73.23
685.576	73.87
685.893	73.11
686.211	73.31
686.528	72.81
686.845	72.16
687.162	72.37
687.48	72.01
687.797	71.99
688.114	71.66
688.431	71.78
688.748	72.86
689.065	72.91
689.382	73.12
689.699	73.72
690.015	73.85
690.332	74.18
690.649	74.18
690.966	73.64
691.282	73.12
691.599	72.9
691.915	71.84
692.232	73.37
692.548	74.39
692.865	74.35
693.181	74.5
693.497	74.67
693.813	75.05
694.13	75.17
694.446	75.69
694.762	76.8
695.078	77.05
695.394	76.13
695.71	77.05
696.026	76.04
696.342	75.83
696.658	74.27
696.973	74.44
697.289	74.13
697.605	74.06
697.92	73.3
698.236	74.01
698.551	73.87
698.867	75.05
699.182	75.79
699.498	77.42
699.813	78.11
700.128	76.24
700.444	76.02
700.759	75.83
701.074	75.9
701.389	75.89
701.704	76.69
702.019	76.45
702.334	76.03
702.649	75.15
702.964	75.43
703.279	76.02
703.594	75.83
703.908	77.31
704.223	77.3
704.538	77.63
704.852	78.27
705.167	78.59
705.481	78.14
705.796	78.49
706.11	77.72
706.425	78.81
706.739	77.84
707.053	78.09
707.368	76.83
707.682	76.29
707.996	76.45
708.31	77.27
708.624	77.2
708.938	78.45
709.252	78.48
709.566	77.4
709.88	76.06
710.193	76.41
710.507	76.65
710.821	76.07
711.135	75.1
711.448	74.68
711.762	73.98
712.075	75.09
712.389	75.43
712.702	75.22
713.015	75.94
713.329	75.9
713.642	75.94
713.955	74.87
714.269	73.44
714.582	73.65
714.895	72.52
715.208	73.12
715.521	72.68
715.834	72.72
716.147	72.01
716.459	71.6
716.772	69.99
717.085	69.62
717.398	70.3
717.71	69.86
718.023	69.72
718.336	69.93
718.648	70.26
718.961	70.91
719.273	70.38
719.585	71.05
719.898	69.86
720.21	69.92
720.522	69.55
720.834	68.21
721.147	68.31
721.459	69.39
721.771	70.82
722.083	70.29
722.395	69.08
722.707	69.31
723.019	68.27
723.33	69.64
723.642	69.75
723.954	69.11
724.265	69.88
724.577	69.86
724.889	69.14
725.2	68.87
725.512	69.82
725.823	69.11
726.135	69.14
726.446	69.68
726.757	70.79
727.068	72.43
727.38	73.31
727.691	73.58
728.002	74.15
728.313	73.34
728.624	73.62
728.935	72.99
729.246	72.4
729.557	72.41
729.867	72.42
730.178	73
730.489	73.35
730.8	73.61
731.11	73.3
731.421	73.99
731.731	74.2
732.042	74.07
732.352	73.68
732.663	73.97
732.973	73.86
733.283	73.94
733.594	74.95
733.904	74.59
734.214	73.92
734.524	73.41
734.834	72.96
735.144	71.35
735.454	72.32
735.764	71.46
736.074	71.29
736.384	70.69
736.694	71.5
737.003	72.57
737.313	71.65
737.623	72.43
737.932	73.2
738.242	73.12
738.551	73.24
738.861	74.08
739.17	72.91
739.479	72.88
739.789	72.94
740.098	73.82
740.407	74.62
740.716	74.32
741.025	74.86
741.334	71.9
741.643	71.53
741.952	71.09
742.261	70.59
742.57	70.07
742.879	69.89
743.188	66.76
743.497	66.55
743.805	65.17
744.114	66
744.422	66.32
744.731	64.76
745.04	64.66
745.348	65.74
745.656	62.95
745.965	62.73
746.273	63.78
746.581	62.94
746.889	62.94
747.198	63.51
747.506	63.43
747.814	62.8
748.122	61.19
748.43	61.33
748.738	61.9
749.046	63.49
749.353	63.42
749.661	64.22
749.969	64.91
750.277	65.17
750.584	65.28
750.892	67.06
751.199	67.7
751.507	69.71
751.814	70.93
752.122	69.48
752.429	68.39
752.736	69.03
753.044	68.04
753.351	69.89
753.658	70.02
753.965	70.16
754.272	69.49
754.579	69.91
754.886	70.08
755.193	71.36
755.5	71.9
755.807	71.78
756.114	73.68
756.42	73.07
756.727	73.15
757.034	73.27
757.34	73.05
757.647	72.86
757.953	74.19
758.26	74.96
758.566	75.13
758.872	75.43
759.179	76.89
759.485	76.72
759.791	77.52
760.097	77.72
760.403	76.4
760.709	77.09
761.015	73.91
761.321	73.36
761.627	71.26
761.933	69.21
762.239	69.37
762.545	69.12
762.851	67.14
763.156	66.3
763.462	68.24
763.767	69.78
764.073	69.41
764.378	68.36
764.684	68.89
764.989	66.78
765.295	64.69
765.6	61.05
765.905	61.44
766.21	60.09
766.515	58.27
766.821	58.17
767.126	55.65
767.431	54.93
767.736	58.61
768.041	61.09
768.345	60.26
768.65	63.99
768.955	66.71
769.26	70.23
769.564	73.81
769.869	70.8
770.174	69.12
770.478	71.94
770.783	73.93
771.087	75.9
771.391	68.21
771.696	70.55
772	72.49
772.304	71.77
772.608	78.52
772.913	80.43
773.217	82.48
773.521	82.69
773.825	80.65
774.129	79.91
774.433	75.07
774.736	74.94
775.04	73.96
775.344	71.25
775.648	66.72
775.951	65.91
776.255	69.72
776.559	65.18
776.862	60.88
777.166	62.68
777.469	62.74
777.772	62.41
778.076	59.67
778.379	57.52
778.682	53.16
778.985	50.17
779.289	51.34
779.592	48.37
779.895	49.57
780.198	46.85
780.501	48.93
780.804	46.18
781.106	48.3
781.409	47.1
781.712	47.27
782.015	50.54
782.317	51.17
782.62	50.75
782.923	50.51
783.225	51.24
783.527	55.13
783.83	48.68
784.132	56.64
784.435	59.12
784.737	56.97
785.039	66.28
785.341	67.34
785.643	66.94
785.945	64.51
786.248	70.28
786.55	80.54
786.851	70.28
787.153	67.09
787.455	67.86
787.757	67.91
788.059	65.02
788.36	66.43
788.662	64.53
788.964	68.75
789.265	69.38
789.567	66.26
789.868	67.12
790.17	73.43
790.471	75.05
790.772	79.66
791.074	73.75
791.375	77.66
791.676	67.4
791.977	67.13
792.278	62.35
792.579	55.14
792.88	55.22
793.181	59.42
793.482	67.82
793.783	65.49
794.083	60.07
794.384	71.75
794.685	80.62
794.986	75.75
795.286	70.43
795.587	67.72
795.887	67.22
796.188	63.81
796.488	62.26
796.788	66.02
797.089	59.56
797.389	56.33
797.689	48.28
797.989	38.85
798.289	35.69
798.589	34.83
798.889	28.23
799.189	31.98
799.489	29.99
799.789	34.69
800.089	38.39
800.389	41.61
800.688	33.76
800.988	30.74
801.288	23.37
801.587	28.3
801.887	13.75
802.186	-0.98
802.486	-2.09
802.785	-7.19
803.085	-1.86
803.384	-3.59
803.683	-3.38
803.982	3.72
804.281	-6.16
804.58	13.39
804.879	15.98
805.178	26.04
805.477	38.14
805.776	33.86
806.075	41.55
806.374	39.93
806.673	41.1
806.971	37.67
807.27	37.92
807.569	31.87
807.867	33.52
808.166	47.22
808.464	54.77
808.763	60.27
809.061	56.9
809.359	68.37
809.658	107.16
809.956	145.35
810.254	180.84
810.552	215.79
810.85	155.72
811.148	132.17
811.446	131.44
811.744	115.61
812.042	121.85
812.34	102.92
812.638	106.62
812.935	109.18
813.233	95.86
813.531	87.91
813.828	98.95
814.126	125.51
814.423	145.57
814.721	154.55
815.018	188.19
815.316	151.03
815.613	123.31
815.91	110.88
816.207	94.46
816.504	78.57
816.802	54.05
817.099	7.46
817.396	-7.79
817.693	9.24
817.99	-5.32
818.286	-54.41
818.583	-43.28
818.88	-34.18
819.177	-25.19
819.473	5.22
819.77	-7.27
820.067	0.09
820.363	5.25
820.66	-9.04
820.956	-32.28
821.252	-56.47
821.549	-68.63
821.845	-53.54
822.141	-41.96
822.437	-24.54
822.734	-20.6
823.03	-32.44
823.326	-18.43
823.622	-11.03
823.918	-3.83
824.213	6.93
824.509	14.53
824.805	11.63
825.101	4.55
825.397	11.5
825.692	7.55
825.988	2.77
826.283	22.81
826.579	11.33
826.874	7.67
827.17	33.26
827.465	38.93
827.76	42.24
828.056	62.07
828.351	75.75
828.646	75.71
828.941	77.88
829.236	84.22
829.531	89.28
829.826	75.84
830.121	73.47
830.416	71.53
830.711	57.1
831.006	51.99
831.3	48.54
831.595	35.47
831.89	32.82
832.184	36.62
832.479	33.19
832.773	34.92
833.068	45.83
833.362	47.71
833.656	26.96
833.951	29.9
834.245	28.24
834.539	8.85
834.833	3.29
835.127	9.86
835.421	12.21
835.715	18.56
836.009	26.91
836.303	19.32
836.597	14.44
836.891	6.68
837.185	0.54
837.478	-8.75
837.772	-11.18
838.066	-17.36
838.359	-17.64
838.653	-20
838.946	-4.28
839.24	-3.01
839.533	-3.34
839.826	5.87
840.119	1.65
840.413	0.35
840.706	-14.5
840.999	-2.65
841.292	5.18
841.585	12.42
841.878	25.46
842.171	7.08
842.464	-5.9
842.757	-32.59
843.049	-33.25
843.342	-51.04
843.635	-53.06
843.927	-44.37
844.22	-47.24
844.513	-58.83
844.805	-40.73
845.098	-26.3
845.39	-13.75
845.682	-12.07
845.975	-22.89
846.267	-25.02
846.559	-36.99
846.851	-18.48
847.143	-13.19
847.435	-1.4
847.727	-16.93
848.019	-1.6
848.311	7.35
848.603	2.68
848.895	1.13
849.186	-2.59
849.478	4.95
849.77	15.33
850.061	24.56
850.353	27.25
850.645	30.73
850.936	51.72
851.227	39.99
851.519	40.69
851.81	44.4
852.101	35.46
852.393	32.5
852.684	20.05
852.975	21.2
853.266	14.43
853.557	-1.64
853.848	-2.03
854.139	-1.76
854.43	-17.88
854.72	-28.25
855.011	-17.04
855.302	-20.37
855.593	-26.26
855.883	-48.01
856.174	-46.74
856.464	-60.77
856.755	-78.1
857.045	-73.93
857.336	-48.34
857.626	-95.84
857.916	-31.53
858.206	-77.83
858.497	-44.5
858.787	-35.75
859.077	-54.79
859.367	-37.01
859.657	-31.03
859.947	-31.11
860.237	-31.53
860.527	-23.45
860.816	-7.56
861.106	19.13
861.396	-5.77
861.685	-2.63
861.975	-13.3
862.265	-30
862.554	-42.47
862.844	-99.05
863.133	-114.76
863.422	-70.36
863.712	-23.09
864.001	5.61
864.29	-5.5
864.579	-23.25
864.868	-22.71
865.157	-43.2
865.446	-18.88
865.735	-46.11
866.024	-68.11
866.313	-50.83
866.602	-67.37
866.891	-107.25
867.179	-99.16
867.468	-79.75
