Data from T1_Reflection__50__13-59-48-999.txt Node

Date: Thu Jun 03 13:59:48 CEST 2021
User: mabdelazizm
Spectrometer: FLMS18565
Trigger mode: 0
Integration Time (sec): 2.000000E0
Scans to average: 1
Electric dark correction enabled: true
Nonlinearity correction enabled: false
Boxcar width: 12
XAxis mode: Wavelengths
Number of Pixels in Spectrum: 2048
>>>>>Begin Spectral Data<<<<<
179.071	33.89
179.452	77.8
179.833	66.93
180.214	80.92
180.595	70.86
180.977	71.22
181.358	67.25
181.739	45.17
182.12	40.72
182.501	42.73
182.882	29.08
183.262	33.67
183.643	8.48
184.024	21.48
184.405	28.97
184.786	34.73
185.166	24.76
185.547	20.22
185.927	21.77
186.308	20.04
186.689	26.35
187.069	24.73
187.449	29.02
187.83	13.96
188.21	9.15
188.59	9.99
188.971	5.07
189.351	7.92
189.731	3.94
190.111	7.85
190.491	6.04
190.871	9.14
191.251	13.16
191.631	13.27
192.011	12.05
192.391	15.17
192.771	15.58
193.151	17.64
193.531	17.05
193.91	16.78
194.29	15.89
194.67	15.44
195.049	13.87
195.429	14.2
195.808	15.42
196.188	13.97
196.567	12.92
196.946	12.46
197.326	15.16
197.705	16.89
198.084	18.05
198.464	16.63
198.843	16.34
199.222	18.55
199.601	19.33
199.98	18.33
200.359	16.83
200.738	16.24
201.117	16.34
201.496	15.22
201.875	13.18
202.254	12.92
202.632	11.76
203.011	11.63
203.39	11.43
203.768	12.25
204.147	12.01
204.525	12.3
204.904	13.18
205.282	13.38
205.661	13.38
206.039	15.37
206.418	14.77
206.796	15.98
207.174	15.34
207.552	14.12
207.931	12.95
208.309	11.67
208.687	10.43
209.065	10.2
209.443	10.75
209.821	11.05
210.199	11.35
210.577	11.46
210.954	13.83
211.332	14.27
211.71	13.49
212.088	14.32
212.465	14.21
212.843	13.6
213.221	12.08
213.598	13.42
213.976	13.11
214.353	12.11
214.731	12.16
215.108	12.31
215.485	11.78
215.863	11.55
216.24	10.89
216.617	11.98
216.994	11.62
217.371	12.26
217.749	11.78
218.126	11.26
218.503	11.19
218.88	11.84
219.256	11.99
219.633	10.88
220.01	10.13
220.387	9.86
220.764	9.35
221.14	9.33
221.517	9.27
221.894	9.39
222.27	9.85
222.647	10.03
223.023	9.16
223.4	8.83
223.776	8.38
224.153	7.93
224.529	7.63
224.905	7.65
225.282	7.42
225.658	7.05
226.034	6.49
226.41	6.73
226.786	6.85
227.162	6.95
227.538	6.64
227.914	6.36
228.29	6.13
228.666	5.84
229.042	6
229.418	6.09
229.793	5.9
230.169	5.94
230.545	5.9
230.92	5.72
231.296	5.54
231.672	5.28
232.047	5.24
232.422	5.33
232.798	5.31
233.173	5.37
233.549	5.18
233.924	5
234.299	4.8
234.674	4.8
235.05	4.66
235.425	4.67
235.8	4.61
236.175	4.46
236.55	4.49
236.925	4.48
237.3	4.42
237.675	4.46
238.049	4.48
238.424	4.37
238.799	4.39
239.174	4.35
239.548	4.22
239.923	4.22
240.297	4.2
240.672	4.25
241.046	4.25
241.421	4.24
241.795	4.16
242.17	4.23
242.544	4.21
242.918	4.28
243.293	4.33
243.667	4.3
244.041	4.31
244.415	4.39
244.789	4.32
245.163	4.26
245.537	4.26
245.911	4.18
246.285	4.16
246.659	4.13
247.033	4.04
247.406	4.03
247.78	4.07
248.154	4.03
248.528	4.04
248.901	4.09
249.275	4.04
249.648	4
250.022	3.98
250.395	3.92
250.769	3.94
251.142	3.97
251.515	3.89
251.888	3.85
252.262	3.79
252.635	3.71
253.008	3.69
253.381	3.66
253.754	3.64
254.127	3.64
254.5	3.65
254.873	3.7
255.246	3.73
255.619	3.75
255.992	3.78
256.364	3.79
256.737	3.71
257.11	3.65
257.483	3.63
257.855	3.62
258.228	3.58
258.6	3.61
258.973	3.64
259.345	3.62
259.718	3.66
260.09	3.6
260.462	3.58
260.834	3.61
261.207	3.62
261.579	3.67
261.951	3.71
262.323	3.7
262.695	3.68
263.067	3.71
263.439	3.69
263.811	3.65
264.183	3.57
264.555	3.56
264.927	3.57
265.298	3.56
265.67	3.54
266.042	3.64
266.413	3.64
266.785	3.63
267.156	3.6
267.528	3.68
267.899	3.69
268.271	3.64
268.642	3.55
269.013	3.49
269.385	3.5
269.756	3.46
270.127	3.42
270.498	3.37
270.87	3.33
271.241	3.31
271.612	3.33
271.983	3.35
272.354	3.32
272.724	3.33
273.095	3.32
273.466	3.37
273.837	3.32
274.208	3.27
274.578	3.25
274.949	3.24
275.32	3.2
275.69	3.19
276.061	3.19
276.431	3.19
276.802	3.16
277.172	3.1
277.542	3.14
277.913	3.22
278.283	3.22
278.653	3.23
279.023	3.28
279.394	3.25
279.764	3.26
280.134	3.22
280.504	3.21
280.874	3.17
281.244	3.19
281.614	3.16
281.983	3.17
282.353	3.17
282.723	3.1
283.093	3.08
283.462	3.07
283.832	3.12
284.202	3.15
284.571	3.12
284.941	3.15
285.31	3.1
285.68	3.08
286.049	3.05
286.418	2.99
286.788	3.07
287.157	3.01
287.526	3.06
287.895	3.01
288.264	3.01
288.633	2.94
289.002	2.91
289.371	2.95
289.74	2.97
290.109	2.96
290.478	2.89
290.847	2.84
291.216	2.83
291.585	2.8
291.953	2.79
292.322	2.82
292.691	2.82
293.059	2.73
293.428	2.69
293.796	2.69
294.165	2.62
294.533	2.63
294.901	2.63
295.27	2.63
295.638	2.66
296.006	2.49
296.374	2.48
296.743	2.43
297.111	2.41
297.479	2.36
297.847	2.46
298.215	2.43
298.583	2.4
298.95	2.36
299.318	2.35
299.686	2.36
300.054	2.45
300.422	2.43
300.789	2.46
301.157	2.48
301.525	2.47
301.892	2.47
302.26	2.51
302.627	2.48
302.994	2.48
303.362	2.52
303.729	2.54
304.097	2.51
304.464	2.44
304.831	2.43
305.198	2.43
305.565	2.5
305.932	2.48
306.299	2.52
306.666	2.47
307.033	2.44
307.4	2.52
307.767	2.48
308.134	2.47
308.501	2.48
308.867	2.43
309.234	2.32
309.601	2.31
309.967	2.31
310.334	2.27
310.701	2.24
311.067	2.21
311.433	2.22
311.8	2.23
312.166	2.2
312.533	2.23
312.899	2.21
313.265	2.2
313.631	2.2
313.997	2.18
314.363	2.23
314.729	2.15
315.096	2.14
315.461	2.12
315.827	2.14
316.193	2.12
316.559	2.09
316.925	2.1
317.291	2.07
317.656	2.06
318.022	2.14
318.388	2.2
318.753	2.14
319.119	2.09
319.484	2.14
319.85	2.1
320.215	2.13
320.581	2.07
320.946	2.06
321.311	2.06
321.676	2.03
322.042	2
322.407	2.03
322.772	2.01
323.137	2.04
323.502	2.03
323.867	2
324.232	2.04
324.597	2.08
324.962	2.06
325.327	2.05
325.691	2.04
326.056	2.07
326.421	2.13
326.785	2.12
327.15	2.06
327.514	1.97
327.879	2.1
328.243	2.17
328.608	2.14
328.972	2.17
329.337	2.2
329.701	2.22
330.065	2.24
330.429	2.24
330.794	2.15
331.158	2.16
331.522	2.12
331.886	2.18
332.25	2.17
332.614	2.17
332.978	2.21
333.342	2.15
333.705	2.13
334.069	2.11
334.433	2.14
334.797	2.07
335.16	2.01
335.524	2.06
335.887	2.08
336.251	2.02
336.614	2.1
336.978	2.05
337.341	1.98
337.705	1.98
338.068	2.05
338.431	2.01
338.794	2.05
339.158	2
339.521	2.01
339.884	2.07
340.247	2.1
340.61	2.02
340.973	2.02
341.336	2
341.699	1.99
342.062	1.98
342.424	1.98
342.787	1.96
343.15	1.99
343.512	1.94
343.875	2.01
344.238	2.04
344.6	1.99
344.963	1.95
345.325	2.03
345.688	2
346.05	1.96
346.412	2.04
346.775	1.97
347.137	1.88
347.499	1.94
347.861	1.91
348.223	1.92
348.585	1.95
348.947	1.99
349.309	1.93
349.671	2.04
350.033	2.04
350.395	2.02
350.757	2.05
351.118	2.08
351.48	2.11
351.842	2.1
352.203	2.08
352.565	2.14
352.927	2.19
353.288	2.15
353.65	2.13
354.011	2.19
354.372	2.19
354.734	2.17
355.095	2.21
355.456	2.2
355.817	2.25
356.179	2.23
356.54	2.21
356.901	2.2
357.262	2.2
357.623	2.24
357.984	2.23
358.345	2.33
358.705	2.3
359.066	2.28
359.427	2.3
359.788	2.2
360.148	2.14
360.509	2.13
360.87	2.12
361.23	2.13
361.591	2.09
361.951	2.03
362.312	2.08
362.672	2.1
363.032	2.12
363.393	2.1
363.753	2.12
364.113	2.06
364.473	2.05
364.833	2.06
365.193	2.08
365.553	2.08
365.913	2.09
366.273	2.05
366.633	1.99
366.993	1.91
367.353	1.86
367.713	1.8
368.072	1.82
368.432	1.85
368.792	1.9
369.151	1.88
369.511	1.88
369.87	1.95
370.23	1.98
370.589	2.03
370.949	2.07
371.308	2.04
371.667	2.02
372.027	1.92
372.386	1.99
372.745	2.01
373.104	2.03
373.463	2.02
373.822	2
374.181	2.02
374.54	2.04
374.899	2.08
375.258	2.15
375.617	2.06
375.975	2.14
376.334	2.14
376.693	2.24
377.052	2.26
377.41	2.24
377.769	2.31
378.127	2.27
378.486	2.27
378.844	2.22
379.202	2.21
379.561	2.2
379.919	2.14
380.277	2.18
380.636	2.2
380.994	2.23
381.352	2.18
381.71	2.23
382.068	2.28
382.426	2.33
382.784	2.35
383.142	2.39
383.5	2.36
383.857	2.38
384.215	2.46
384.573	2.55
384.931	2.53
385.288	2.5
385.646	2.56
386.003	2.52
386.361	2.6
386.718	2.66
387.076	2.8
387.433	2.92
387.791	2.99
388.148	3.09
388.505	3.14
388.862	3.29
389.22	3.42
389.577	3.51
389.934	3.61
390.291	3.7
390.648	3.78
391.005	3.92
391.362	3.95
391.718	4.11
392.075	4.21
392.432	4.33
392.789	4.43
393.145	4.45
393.502	4.58
393.859	4.76
394.215	4.93
394.572	5.04
394.928	5.24
395.285	5.35
395.641	5.46
395.997	5.62
396.354	5.72
396.71	5.91
397.066	6.07
397.422	6.23
397.778	6.47
398.134	6.65
398.491	6.94
398.846	7.22
399.202	7.49
399.558	7.67
399.914	7.9
400.27	8.23
400.626	8.48
400.981	8.78
401.337	9.08
401.693	9.46
402.048	9.91
402.404	10.24
402.759	10.55
403.115	11.03
403.47	11.4
403.826	11.8
404.181	12.15
404.536	12.55
404.892	12.9
405.247	13.33
405.602	13.83
405.957	14.28
406.312	14.7
406.667	15.08
407.022	15.5
407.377	15.93
407.732	16.36
408.087	16.85
408.442	17.47
408.796	18.03
409.151	18.58
409.506	19.17
409.86	19.7
410.215	20.21
410.57	20.61
410.924	21.02
411.279	21.58
411.633	22.17
411.987	22.65
412.342	23.18
412.696	23.63
413.05	24.29
413.404	24.83
413.758	25.49
414.113	26.05
414.467	26.63
414.821	27.1
415.175	27.77
415.529	28.38
415.882	28.95
416.236	29.47
416.59	30.03
416.944	30.61
417.298	31.21
417.651	31.66
418.005	32.15
418.358	32.55
418.712	33.11
419.065	33.62
419.419	34.18
419.772	34.74
420.126	35.17
420.479	35.63
420.832	36.07
421.185	36.54
421.539	37.12
421.892	37.46
422.245	37.89
422.598	38.26
422.951	38.71
423.304	39.01
423.657	39.5
424.01	39.88
424.363	40.26
424.715	40.74
425.068	41.24
425.421	41.69
425.773	42.04
426.126	42.38
426.479	42.73
426.831	43.16
427.184	43.59
427.536	43.77
427.889	44.17
428.241	44.54
428.593	44.79
428.945	45.17
429.298	45.49
429.65	45.92
430.002	46.25
430.354	46.56
430.706	46.88
431.058	47.13
431.41	47.65
431.762	48.03
432.114	48.3
432.466	48.53
432.817	48.76
433.169	49.14
433.521	49.42
433.872	49.49
434.224	49.64
434.576	49.82
434.927	50.04
435.279	50.25
435.63	50.36
435.981	50.54
436.333	50.93
436.684	50.9
437.035	51.04
437.387	51.24
437.738	51.43
438.089	51.6
438.44	51.57
438.791	51.68
439.142	51.78
439.493	52.03
439.844	52.13
440.195	52.13
440.545	52.07
440.896	52.44
441.247	52.56
441.598	52.71
441.948	52.74
442.299	52.82
442.649	52.99
443	53.12
443.35	53.26
443.701	53.23
444.051	53.26
444.401	53.31
444.752	53.42
445.102	53.35
445.452	53.54
445.802	53.66
446.152	53.67
446.502	53.7
446.852	53.74
447.202	53.78
447.552	53.84
447.902	53.88
448.252	53.91
448.602	54.41
448.952	54.37
449.301	54.46
449.651	54.31
450.001	54.36
450.35	54.4
450.7	54.31
451.049	54.22
451.399	54.32
451.748	54.38
452.097	54.24
452.447	54.33
452.796	54.44
453.145	54.45
453.494	54.29
453.843	54.31
454.193	54.35
454.542	54.35
454.891	54.39
455.239	54.31
455.588	54.26
455.937	54.38
456.286	54.39
456.635	54.27
456.984	54.18
457.332	53.85
457.681	53.89
458.03	53.82
458.378	53.78
458.727	53.73
459.075	53.73
459.423	53.91
459.772	53.9
460.12	53.72
460.468	53.52
460.817	53.6
461.165	53.52
461.513	53.39
461.861	53.43
462.209	53.34
462.557	53.35
462.905	53.14
463.253	52.93
463.601	52.92
463.949	52.86
464.297	52.79
464.644	52.73
464.992	52.6
465.34	52.64
465.687	52.74
466.035	52.57
466.383	52.45
466.73	52.25
467.078	52.22
467.425	52.23
467.772	52.23
468.12	52.07
468.467	52
468.814	52.1
469.161	52.14
469.508	52.02
469.856	52.05
470.203	51.91
470.55	51.75
470.897	51.8
471.243	51.67
471.59	51.73
471.937	51.67
472.284	51.7
472.631	51.61
472.977	51.64
473.324	51.5
473.671	51.45
474.017	51.29
474.364	51.12
474.71	50.97
475.057	50.96
475.403	50.96
475.749	50.82
476.096	50.59
476.442	50.3
476.788	50.22
477.134	50.13
477.48	49.93
477.826	49.82
478.172	49.75
478.518	49.58
478.864	49.65
479.21	49.65
479.556	49.54
479.902	49.45
480.248	49.43
480.593	49.39
480.939	49.18
481.285	49.01
481.63	48.82
481.976	48.63
482.321	48.47
482.667	48.44
483.012	48.28
483.357	48.3
483.703	48.11
484.048	47.96
484.393	47.86
484.738	47.86
485.084	47.9
485.429	47.83
485.774	47.77
486.119	47.76
486.464	47.61
486.808	47.48
487.153	47.38
487.498	47.18
487.843	46.98
488.188	46.88
488.532	46.66
488.877	46.47
489.222	46.33
489.566	46.16
489.911	46.07
490.255	46
490.6	45.81
490.944	45.72
491.288	45.5
491.633	45.45
491.977	45.3
492.321	45.18
492.665	45.1
493.009	45.04
493.353	44.95
493.697	44.69
494.041	44.58
494.385	44.51
494.729	44.45
495.073	44.42
495.417	44.42
495.76	44.35
496.104	44.27
496.448	44.15
496.791	44.07
497.135	44.1
497.479	43.92
497.822	43.8
498.165	43.8
498.509	43.75
498.852	43.56
499.196	43.62
499.539	43.54
499.882	43.51
500.225	43.38
500.568	43.31
500.911	43.21
501.254	43.19
501.597	43.06
501.94	42.95
502.283	42.9
502.626	42.83
502.969	42.73
503.312	42.48
503.654	42.36
503.997	42.17
504.34	41.99
504.682	41.9
505.025	41.81
505.367	41.62
505.71	41.42
506.052	41.46
506.395	41.35
506.737	41.16
507.079	41.1
507.421	41.08
507.764	40.91
508.106	40.78
508.448	40.71
508.79	40.53
509.132	40.35
509.474	40.27
509.816	40.09
510.158	39.9
510.499	39.75
510.841	39.7
511.183	39.57
511.525	39.39
511.866	39.38
512.208	39.28
512.549	39.18
512.891	39.07
513.232	39.01
513.574	38.93
513.915	38.91
514.256	38.78
514.598	38.56
514.939	38.49
515.28	38.41
515.621	38.23
515.962	38.21
516.303	38.17
516.644	37.98
516.985	37.82
517.326	37.77
517.667	37.79
518.008	37.61
518.349	37.61
518.69	37.53
519.03	37.38
519.371	37.23
519.712	37.03
520.052	36.84
520.393	36.65
520.733	36.46
521.074	36.22
521.414	36.14
521.754	35.96
522.095	35.93
522.435	35.92
522.775	35.95
523.115	35.84
523.455	35.75
523.795	35.66
524.135	35.64
524.475	35.37
524.815	35.26
525.155	35.38
525.495	35.35
525.835	35.26
526.175	35.11
526.514	35.14
526.854	35.04
527.194	34.94
527.533	34.86
527.873	34.79
528.212	34.73
528.552	34.75
528.891	34.73
529.23	34.85
529.57	35
529.909	34.97
530.248	34.81
530.587	34.71
530.927	34.58
531.266	34.4
531.605	34.38
531.944	34.24
532.283	34.13
532.621	34.01
532.96	34.03
533.299	33.96
533.638	33.81
533.977	33.62
534.315	33.64
534.654	33.47
534.992	33.43
535.331	33.29
535.67	33.2
536.008	33.09
536.346	33.14
536.685	33.06
537.023	32.93
537.361	32.78
537.7	32.55
538.038	32.38
538.376	32.29
538.714	32.34
539.052	32.24
539.39	32.13
539.728	32.08
540.066	32.02
540.404	31.97
540.741	31.91
541.079	31.96
541.417	31.91
541.755	31.82
542.092	31.8
542.43	31.82
542.767	31.68
543.105	31.77
543.442	31.71
543.78	31.66
544.117	31.76
544.454	31.78
544.792	31.58
545.129	31.62
545.466	31.68
545.803	31.71
546.14	31.72
546.477	31.77
546.814	31.72
547.151	31.68
547.488	31.66
547.825	31.54
548.162	31.6
548.499	31.66
548.835	31.69
549.172	31.61
549.509	31.52
549.845	31.45
550.182	31.49
550.518	31.4
550.855	31.31
551.191	31.37
551.528	31.24
551.864	31.17
552.2	31.25
552.537	31.23
552.873	31.16
553.209	31.21
553.545	31.11
553.881	31.09
554.217	31.11
554.553	31.1
554.889	31.01
555.225	31.1
555.561	31.01
555.896	30.95
556.232	31.04
556.568	30.99
556.903	30.99
557.239	30.92
557.575	31.02
557.91	31.03
558.245	31.19
558.581	31.05
558.916	31.13
559.252	31.27
559.587	31.21
559.922	31.25
560.257	31.13
560.592	31.17
560.928	31.15
561.263	31.28
561.598	31.29
561.933	31.43
562.267	31.74
562.602	31.72
562.937	31.82
563.272	31.9
563.607	31.86
563.941	32.06
564.276	32.25
564.611	32.29
564.945	32.33
565.28	32.25
565.614	32.27
565.949	32.22
566.283	32.29
566.617	32.33
566.951	32.46
567.286	32.54
567.62	32.53
567.954	32.6
568.288	32.72
568.622	32.81
568.956	32.7
569.29	32.69
569.624	32.62
569.958	32.74
570.292	32.7
570.626	32.59
570.959	32.66
571.293	32.69
571.627	32.76
571.96	32.89
572.294	32.79
572.627	32.78
572.961	32.79
573.294	32.87
573.627	33
573.961	33.17
574.294	33.25
574.627	33.32
574.961	33.29
575.294	33.37
575.627	33.21
575.96	33.25
576.293	33.29
576.626	33.37
576.959	33.48
577.292	33.61
577.624	33.68
577.957	33.85
578.29	33.84
578.623	33.94
578.955	34
579.288	34.03
579.62	34.05
579.953	34.1
580.285	34.11
580.618	34.32
580.95	34.48
581.282	34.57
581.615	34.57
581.947	34.56
582.279	34.6
582.611	34.63
582.943	34.69
583.275	34.8
583.607	34.92
583.939	35.21
584.271	35.32
584.603	35.37
584.935	35.39
585.267	35.37
585.598	35.43
585.93	35.55
586.262	35.52
586.593	35.57
586.925	35.65
587.256	35.72
587.588	35.71
587.919	35.94
588.25	36.06
588.582	36.12
588.913	36.12
589.244	36.05
589.575	36.19
589.907	36.26
590.238	36.43
590.569	36.55
590.9	36.71
591.231	36.74
591.562	36.81
591.892	36.88
592.223	37.09
592.554	37.31
592.885	37.59
593.215	37.62
593.546	37.72
593.877	37.92
594.207	37.88
594.538	38.07
594.868	38.21
595.198	38.26
595.529	38.44
595.859	38.72
596.189	38.74
596.52	38.78
596.85	38.83
597.18	38.92
597.51	39.05
597.84	39.13
598.17	39.28
598.5	39.22
598.83	39.2
599.16	39.32
599.489	39.52
599.819	39.75
600.149	39.89
600.479	40.14
600.808	40.18
601.138	40.23
601.467	40.52
601.797	40.79
602.126	40.78
602.456	41.15
602.785	41.28
603.114	41.58
603.443	41.87
603.773	42.07
604.102	42.19
604.431	42.27
604.76	42.44
605.089	42.7
605.418	42.91
605.747	43.17
606.076	43.25
606.405	43.34
606.733	43.67
607.062	43.95
607.391	44.25
607.72	44.35
608.048	44.44
608.377	44.71
608.705	44.79
609.034	45.13
609.362	45.29
609.69	45.45
610.019	45.6
610.347	45.92
610.675	45.98
611.004	46.18
611.332	46.22
611.66	46.42
611.988	46.52
612.316	46.88
612.644	47.09
612.972	47.26
613.3	47.27
613.627	47.48
613.955	47.78
614.283	48.08
614.611	48.41
614.938	48.62
615.266	48.89
615.593	48.96
615.921	49.3
616.248	49.65
616.576	49.87
616.903	49.88
617.23	50
617.558	50.35
617.885	50.61
618.212	50.88
618.539	51.25
618.866	51.49
619.193	51.65
619.52	51.8
619.847	51.96
620.174	52.11
620.501	52.05
620.828	52.06
621.155	52.24
621.481	52.65
621.808	52.7
622.135	52.54
622.461	52.7
622.788	52.98
623.114	53.16
623.441	53.09
623.767	53.43
624.093	53.31
624.42	53.31
624.746	53.7
625.072	53.93
625.398	54.06
625.725	54.17
626.051	54.19
626.377	54.5
626.703	54.5
627.029	54.65
627.354	54.78
627.68	54.92
628.006	55.12
628.332	55.24
628.658	55.66
628.983	56.22
629.309	56.44
629.634	56.33
629.96	56.46
630.285	56.77
630.611	56.62
630.936	56.48
631.262	56.35
631.587	56.91
631.912	56.97
632.237	57.44
632.562	57.6
632.887	57.65
633.213	58.28
633.538	58.57
633.863	58.78
634.187	58.78
634.512	58.33
634.837	57.93
635.162	58.04
635.487	58.74
635.811	58.97
636.136	59.03
636.461	59.28
636.785	59.17
637.11	59.42
637.434	59.46
637.758	60.16
638.083	60.5
638.407	61.14
638.731	62.08
639.056	62.17
639.38	62.67
639.704	62.65
640.028	63.13
640.352	63.44
640.676	64.22
641	63.46
641.324	63.04
641.648	62.71
641.972	62.58
642.295	63.26
642.619	63.97
642.943	64.36
643.266	64.12
643.59	63.6
643.913	64.22
644.237	64.24
644.56	63.79
644.884	63.67
645.207	63.41
645.53	63.79
645.854	64.04
646.177	63.78
646.5	63.41
646.823	63.15
647.146	63.57
647.469	63.59
647.792	64.05
648.115	63.53
648.438	63.71
648.761	65.24
649.084	65.86
649.406	65.95
649.729	65.26
650.052	64.9
650.374	64.7
650.697	64.83
651.019	65
651.342	65.23
651.664	65.21
651.987	64.98
652.309	64.86
652.631	65.12
652.953	65.2
653.276	65.15
653.598	65.01
653.92	64.94
654.242	65.11
654.564	65.15
654.886	65.08
655.208	65.02
655.53	65.02
655.851	64.66
656.173	64.65
656.495	64.54
656.816	63.76
657.138	63.25
657.46	62.7
657.781	63.31
658.103	64.67
658.424	64.95
658.746	64.5
659.067	64.04
659.388	63.98
659.709	63.82
660.031	63.87
660.352	64.53
660.673	64.59
660.994	64.1
661.315	64.56
661.636	65.16
661.957	64.51
662.278	63.98
662.599	64.2
662.919	63.89
663.24	64.24
663.561	63.91
663.881	64.2
664.202	64.44
664.523	64.9
664.843	64.67
665.164	64.34
665.484	64.17
665.804	64.21
666.125	63.68
666.445	64.02
666.765	64.46
667.085	64.89
667.405	64.86
667.726	65.81
668.046	65.51
668.366	65.36
668.686	64.55
669.005	64.59
669.325	64.67
669.645	64.62
669.965	64.62
670.285	64.44
670.604	64.14
670.924	64.18
671.243	63.98
671.563	63.92
671.882	64.21
672.202	64.37
672.521	64.18
672.841	63.75
673.16	63.59
673.479	63.46
673.798	64.07
674.117	64.06
674.437	63.82
674.756	63.84
675.075	64.29
675.394	64.63
675.713	64.38
676.031	65.06
676.35	64.96
676.669	65.04
676.988	65.59
677.306	65.3
677.625	64.36
677.944	65.05
678.262	65.92
678.581	65.9
678.899	66.61
679.218	66.6
679.536	67.35
679.854	67.14
680.172	67.13
680.491	66.58
680.809	66.81
681.127	67.49
681.445	67.6
681.763	66.45
682.081	66.25
682.399	66.34
682.717	66.18
683.035	65.39
683.352	64.91
683.67	64.46
683.988	64.66
684.306	65.09
684.623	64.63
684.941	64.48
685.258	63.99
685.576	65.17
685.893	64.62
686.211	64.33
686.528	64.81
686.845	64.79
687.162	64.21
687.48	63.72
687.797	63.57
688.114	63.34
688.431	63.58
688.748	64.15
689.065	63.58
689.382	63.55
689.699	64.38
690.015	64.85
690.332	65
690.649	65.3
690.966	65.28
691.282	64.93
691.599	65.34
691.915	64.5
692.232	64.41
692.548	65.74
692.865	65.5
693.181	66.54
693.497	65.91
693.813	66.49
694.13	66.68
694.446	66.3
694.762	65.92
695.078	66.64
695.394	66.66
695.71	66.76
696.026	66.14
696.342	66.05
696.658	65.27
696.973	65.18
697.289	65.2
697.605	64.52
697.92	64.47
698.236	65.06
698.551	64.16
698.867	64.77
699.182	65.3
699.498	65.52
699.813	67.17
700.128	67.61
700.444	67.42
700.759	67.29
701.074	65.19
701.389	65.75
701.704	66.06
702.019	66.5
702.334	65.66
702.649	65.6
702.964	64.89
703.279	64.78
703.594	64.9
703.908	65.66
704.223	65.93
704.538	66.84
704.852	68.34
705.167	68.05
705.481	69.2
705.796	68.64
706.11	67.38
706.425	68.24
706.739	68.13
707.053	67.79
707.368	68.33
707.682	67.77
707.996	67.32
708.31	66.82
708.624	66.97
708.938	69.02
709.252	68.57
709.566	67.42
709.88	67.11
710.193	67.61
710.507	67.36
710.821	68.44
711.135	68.48
711.448	69.45
711.762	69.32
712.075	70.14
712.389	69.72
712.702	68.72
713.015	68.63
713.329	68.74
713.642	69.73
713.955	69.98
714.269	69.44
714.582	69
714.895	67.8
715.208	67.24
715.521	66.4
715.834	66.31
716.147	66.62
716.459	66.76
716.772	65.74
717.085	65.58
717.398	66.48
717.71	65.33
718.023	66.23
718.336	66.97
718.648	66.43
718.961	67.17
719.273	65.3
719.585	65.5
719.898	65.12
720.21	65.15
720.522	64.82
720.834	64.35
721.147	63.65
721.459	61.94
721.771	63.16
722.083	63.04
722.395	62.51
722.707	62.85
723.019	61.9
723.33	62.73
723.642	62.3
723.954	60.98
724.265	60.86
724.577	61
724.889	60.85
725.2	60.26
725.512	60.65
725.823	60.08
726.135	59.52
726.446	60.11
726.757	60.59
727.068	61.2
727.38	61.85
727.691	60.81
728.002	61.9
728.313	62.24
728.624	62.23
728.935	61.9
729.246	63.07
729.557	63.47
729.867	63.33
730.178	64.01
730.489	65.46
730.8	65.92
731.11	65.37
731.421	66.51
731.731	67.62
732.042	67.77
732.352	67.74
732.663	68.15
732.973	68.83
733.283	68.87
733.594	68.96
733.904	70.09
734.214	70.43
734.524	70.53
734.834	71.49
735.144	71.17
735.454	72.01
735.764	70.24
736.074	69.7
736.384	70.22
736.694	70.66
737.003	71.14
737.313	69.58
737.623	68.97
737.932	70.13
738.242	69.86
738.551	69.66
738.861	70.23
739.17	68.47
739.479	68.89
739.789	69.69
740.098	70.27
740.407	70.09
740.716	68.88
741.025	69.31
741.334	68.9
741.643	68.42
741.952	66.79
742.261	64.72
742.57	63.79
742.879	61.91
743.188	60.17
743.497	61.74
743.805	61.44
744.114	64.37
744.422	67.42
744.731	66.09
745.04	67.19
745.348	68.61
745.656	65.78
745.965	65.6
746.273	64.14
746.581	63.75
746.889	63.59
747.198	62.26
747.506	60.77
747.814	60.18
748.122	62.15
748.43	62.39
748.738	62.11
749.046	62.08
749.353	60.3
749.661	61.04
749.969	62.14
750.277	62.16
750.584	62.71
750.892	65.23
751.199	65.82
751.507	67.8
751.814	67.32
752.122	64.5
752.429	65.03
752.736	64.3
753.044	64.99
753.351	66.3
753.658	66.03
753.965	67.17
754.272	67.78
754.579	68.65
754.886	69.98
755.193	70.89
755.5	70.97
755.807	69.55
756.114	70.89
756.42	72.05
756.727	72.24
757.034	73.79
757.34	72.74
757.647	72.72
757.953	72.88
758.26	74
758.566	73.18
758.872	73.08
759.179	71.82
759.485	69.81
759.791	68.56
760.097	65.09
760.403	64.29
760.709	65.96
761.015	64.31
761.321	63.9
761.627	64.47
761.933	62.65
762.239	62.68
762.545	61.6
762.851	61.6
763.156	61.83
763.462	61.56
763.767	62.92
764.073	61.11
764.378	62.03
764.684	62.1
764.989	64.14
765.295	64.2
765.6	62.31
765.905	62.92
766.21	62.83
766.515	61.89
766.821	63.82
767.126	64.21
767.431	67.33
767.736	73.07
768.041	74.64
768.345	68.63
768.65	73.25
768.955	74.8
769.26	73.73
769.564	74.96
769.869	74.6
770.174	76.14
770.478	78.87
770.783	80.69
771.087	81.94
771.391	78.58
771.696	82.88
772	87.28
772.304	87.98
772.608	90.84
772.913	88.77
773.217	91.64
773.521	91.26
773.825	87.32
774.129	86.06
774.433	79.55
774.736	76.7
775.04	76.3
775.344	76.58
775.648	75.49
775.951	79.55
776.255	78.9
776.559	79.04
776.862	81.2
777.166	83.18
777.469	83.14
777.772	81.03
778.076	82.11
778.379	81.88
778.682	81.49
778.985	81.45
779.289	78.94
779.592	73.2
779.895	68.71
780.198	68.55
780.501	67.5
780.804	63.15
781.106	67.14
781.409	72.11
781.712	71.5
782.015	73.61
782.317	74.17
782.62	74.66
782.923	73.12
783.225	76.99
783.527	74.62
783.83	68.43
784.132	70.22
784.435	66.82
784.737	68.05
785.039	65.96
785.341	63.91
785.643	57.59
785.945	55.42
786.248	63.52
786.55	65.06
786.851	63.79
787.153	65.37
787.455	68.72
787.757	66.94
788.059	72.46
788.36	75
788.662	69.29
788.964	73.42
789.265	71.81
789.567	76.5
789.868	82.86
790.17	83.35
790.471	84.19
790.772	87
791.074	84.7
791.375	89.99
791.676	81.53
791.977	81.97
792.278	76.84
792.579	78.47
792.88	83.5
793.181	81.31
793.482	85.11
793.783	77
794.083	74.73
794.384	78.23
794.685	79.81
794.986	78.18
795.286	72.94
795.587	64.57
795.887	62.35
796.188	60.89
796.488	56.68
796.788	56.95
797.089	50.3
797.389	41.76
797.689	38.82
797.989	32.86
798.289	26.9
798.589	26.21
798.889	21.43
799.189	28.45
799.489	24.95
799.789	19.63
800.089	16.46
800.389	22.49
800.688	16.11
800.988	19.49
801.288	16.86
801.587	27.71
801.887	23.12
802.186	15.63
802.486	9.33
802.785	18.78
803.085	34.92
803.384	48.76
803.683	56.13
803.982	51.75
804.281	59.99
804.58	70.72
804.879	86.77
805.178	77.88
805.477	83.26
805.776	82.17
806.075	83.79
806.374	79.99
806.673	74.42
806.971	90.6
807.27	86.91
807.569	97.97
807.867	84.67
808.166	92.11
808.464	95.68
808.763	99.55
809.061	99.89
809.359	97.66
809.658	112.33
809.956	159.83
810.254	164.05
810.552	176.14
810.85	137.49
811.148	123.86
811.446	145.06
811.744	136.32
812.042	152.36
812.34	127.49
812.638	158.31
812.935	188.41
813.233	176.55
813.531	170.97
813.828	163.32
814.126	187.99
814.423	176.73
814.721	205.73
815.018	239.27
815.316	233.65
815.613	214
815.91	213.63
816.207	237.12
816.504	176.18
816.802	162.36
817.099	120.49
817.396	65.67
817.693	52.57
817.99	52.6
818.286	39.87
818.583	43.94
818.88	43.48
819.177	29.09
819.473	36.82
819.77	26.73
820.067	8.28
820.363	11.12
820.66	-3.28
820.956	-19.61
821.252	-33.61
821.549	-24.05
821.845	-4.11
822.141	5.23
822.437	19.24
822.734	26.61
823.03	26.75
823.326	28.27
823.622	22.14
823.918	18.72
824.213	40
824.509	41.68
824.805	54.49
825.101	62.34
825.397	56.24
825.692	48.15
825.988	39.82
826.283	46.36
826.579	56.57
826.874	56.45
827.17	80.61
827.465	95.45
827.76	110.76
828.056	110.37
828.351	113.18
828.646	89.89
828.941	84.98
829.236	96.15
829.531	104.2
829.826	102.64
830.121	113.79
830.416	109.16
830.711	95.33
831.006	90.67
831.3	87.13
831.595	68.06
831.89	60.49
832.184	63.94
832.479	58.59
832.773	71.98
833.068	75.99
833.362	85.17
833.656	75
833.951	71.3
834.245	79.75
834.539	72.56
834.833	73.39
835.127	57.36
835.421	62.23
835.715	66.79
836.009	89.03
836.303	82.61
836.597	71.14
836.891	65.5
837.185	56.24
837.478	46.61
837.772	48.98
838.066	59.21
838.359	53.02
838.653	61.29
838.946	67.56
839.24	67.9
839.533	69.14
839.826	68.91
840.119	52.88
840.413	43.83
840.706	23.88
840.999	34.55
841.292	26.72
841.585	26.56
841.878	31.12
842.171	18.53
842.464	19.47
842.757	15.06
843.049	11.3
843.342	1.42
843.635	3.24
843.927	13.91
844.22	15.56
844.513	3.29
844.805	21.47
845.098	9.77
845.39	-3.21
845.682	5.32
845.975	-7.31
846.267	-4.84
846.559	2.73
846.851	6.58
847.143	22.48
847.435	43.18
847.727	41.41
848.019	54.93
848.311	53.31
848.603	63.62
848.895	62.27
849.186	61.99
849.478	59.07
849.77	59.66
850.061	57.23
850.353	53.24
850.645	56.38
850.936	59.43
851.227	53.2
851.519	47.37
851.81	45.67
852.101	41.87
852.393	57.46
852.684	50.9
852.975	57.33
853.266	63.84
853.557	53.46
853.848	47.08
854.139	45.1
854.43	40.86
854.72	39.03
855.011	35.3
855.302	30.03
855.593	19.39
855.883	2.03
856.174	-10.62
856.464	-14.43
856.755	-28.8
857.045	-19.01
857.336	-11.95
857.626	-27.91
857.916	7.55
858.206	-0.61
858.497	6.57
858.787	15.56
859.077	27.35
859.367	20.27
859.657	19.25
859.947	29.83
860.237	12.47
860.527	9.66
860.816	30.62
861.106	47.72
861.396	38.8
861.685	47.44
861.975	35.64
862.265	45.3
862.554	48.41
862.844	28.63
863.133	-8.8
863.422	25.51
863.712	36.61
864.001	54.85
864.29	55.19
864.579	52.82
864.868	49.86
865.157	41.61
865.446	48.83
865.735	40.83
866.024	35.06
866.313	38.79
866.602	55.79
866.891	25.8
867.179	10.65
867.468	50.54
