Data from T1_Reflection__46__13-56-37-006.txt Node

Date: Thu Jun 03 13:56:37 CEST 2021
User: mabdelazizm
Spectrometer: FLMS18565
Trigger mode: 0
Integration Time (sec): 2.000000E0
Scans to average: 1
Electric dark correction enabled: true
Nonlinearity correction enabled: false
Boxcar width: 12
XAxis mode: Wavelengths
Number of Pixels in Spectrum: 2048
>>>>>Begin Spectral Data<<<<<
179.071	90.54
179.452	117.5
179.833	101.41
180.214	99.42
180.595	90.02
180.977	107.78
181.358	93.29
181.739	77.86
182.12	66.19
182.501	82.73
182.882	82.59
183.262	77.89
183.643	48.94
184.024	47.67
184.405	34.53
184.786	27.34
185.166	32.73
185.547	25.18
185.927	17.97
186.308	24.84
186.689	31.22
187.069	28.54
187.449	29.6
187.83	22.31
188.21	15.19
188.59	11.3
188.971	5.2
189.351	7.12
189.731	6.6
190.111	7.48
190.491	3.67
190.871	7.76
191.251	10.81
191.631	12.49
192.011	10.84
192.391	12.69
192.771	15.95
193.151	16.66
193.531	15.97
193.91	15.55
194.29	15.6
194.67	14.92
195.049	12.61
195.429	10.71
195.808	9.21
196.188	7.65
196.567	4.91
196.946	6.85
197.326	7.68
197.705	9.26
198.084	11.55
198.464	10.82
198.843	10.55
199.222	11.13
199.601	13.43
199.98	13.68
200.359	14.47
200.738	13.54
201.117	14.19
201.496	12.81
201.875	11.84
202.254	10.95
202.632	9.36
203.011	8.23
203.39	9.36
203.768	10.85
204.147	10.84
204.525	12.23
204.904	14.36
205.282	15.21
205.661	14.27
206.039	18.05
206.418	17.98
206.796	19.77
207.174	19.66
207.552	18.14
207.931	17.53
208.309	17.41
208.687	15.63
209.065	15.2
209.443	15.78
209.821	15.69
210.199	17.07
210.577	16.88
210.954	17.69
211.332	18.43
211.71	16.38
212.088	17.65
212.465	17.8
212.843	16.62
213.221	15.2
213.598	16.15
213.976	15.52
214.353	15.59
214.731	14.55
215.108	15.62
215.485	12.62
215.863	11.22
216.24	10.57
216.617	10.95
216.994	11.37
217.371	11.89
217.749	10.96
218.126	11.79
218.503	11.15
218.88	11.07
219.256	10.71
219.633	9.33
220.01	8.03
220.387	8.83
220.764	8.09
221.14	8.34
221.517	8.39
221.894	8.24
222.27	7.87
222.647	7.53
223.023	7.02
223.4	7.18
223.776	6.68
224.153	6.72
224.529	5.71
224.905	6.26
225.282	6.3
225.658	5.59
226.034	5.25
226.41	5.26
226.786	5.48
227.162	5.31
227.538	4.92
227.914	4.81
228.29	4.73
228.666	4.45
229.042	4.47
229.418	4.78
229.793	4.59
230.169	4.75
230.545	4.7
230.92	4.67
231.296	4.5
231.672	4.42
232.047	4.32
232.422	4.3
232.798	4.09
233.173	4.21
233.549	4
233.924	4.16
234.299	4.01
234.674	3.87
235.05	3.86
235.425	3.86
235.8	3.75
236.175	3.63
236.55	3.71
236.925	3.7
237.3	3.66
237.675	3.54
238.049	3.57
238.424	3.55
238.799	3.5
239.174	3.45
239.548	3.3
239.923	3.31
240.297	3.18
240.672	3.2
241.046	3.24
241.421	3.23
241.795	3.23
242.17	3.33
242.544	3.28
242.918	3.41
243.293	3.38
243.667	3.34
244.041	3.42
244.415	3.41
244.789	3.37
245.163	3.37
245.537	3.36
245.911	3.34
246.285	3.33
246.659	3.36
247.033	3.38
247.406	3.32
247.78	3.3
248.154	3.3
248.528	3.25
248.901	3.29
249.275	3.24
249.648	3.24
250.022	3.29
250.395	3.25
250.769	3.31
251.142	3.31
251.515	3.22
251.888	3.22
252.262	3.17
252.635	3.13
253.008	3.11
253.381	3.06
253.754	3.09
254.127	3.11
254.5	3.12
254.873	3.11
255.246	3.13
255.619	3.15
255.992	3.12
256.364	3.08
256.737	3.06
257.11	3.08
257.483	3.05
257.855	3.04
258.228	3.05
258.6	3.06
258.973	3.05
259.345	3.04
259.718	3.08
260.09	3.02
260.462	3.03
260.834	3.02
261.207	2.99
261.579	2.99
261.951	3
262.323	2.98
262.695	2.98
263.067	2.95
263.439	2.92
263.811	2.89
264.183	2.88
264.555	2.84
264.927	2.81
265.298	2.83
265.67	2.82
266.042	2.88
266.413	2.86
266.785	2.88
267.156	2.93
267.528	2.89
267.899	2.94
268.271	2.95
268.642	2.91
269.013	2.86
269.385	2.87
269.756	2.78
270.127	2.79
270.498	2.79
270.87	2.72
271.241	2.71
271.612	2.76
271.983	2.78
272.354	2.74
272.724	2.72
273.095	2.71
273.466	2.67
273.837	2.64
274.208	2.63
274.578	2.65
274.949	2.62
275.32	2.59
275.69	2.52
276.061	2.47
276.431	2.42
276.802	2.46
277.172	2.43
277.542	2.38
277.913	2.32
278.283	2.32
278.653	2.33
279.023	2.39
279.394	2.36
279.764	2.35
280.134	2.36
280.504	2.38
280.874	2.38
281.244	2.33
281.614	2.36
281.983	2.38
282.353	2.34
282.723	2.33
283.093	2.35
283.462	2.3
283.832	2.26
284.202	2.36
284.571	2.38
284.941	2.41
285.31	2.39
285.68	2.38
286.049	2.36
286.418	2.32
286.788	2.42
287.157	2.42
287.526	2.45
287.895	2.39
288.264	2.39
288.633	2.38
289.002	2.33
289.371	2.34
289.74	2.32
290.109	2.27
290.478	2.27
290.847	2.2
291.216	2.21
291.585	2.21
291.953	2.17
292.322	2.13
292.691	2.19
293.059	2.14
293.428	2.06
293.796	2.03
294.165	2.04
294.533	2.07
294.901	2.13
295.27	2.13
295.638	2.1
296.006	1.95
296.374	2
296.743	1.99
297.111	1.98
297.479	1.89
297.847	1.9
298.215	1.9
298.583	1.92
298.95	1.91
299.318	1.93
299.686	1.94
300.054	2
300.422	1.98
300.789	2.01
301.157	2.08
301.525	2.08
301.892	2.06
302.26	2.05
302.627	2.05
302.994	2.06
303.362	2.05
303.729	2.03
304.097	1.96
304.464	1.92
304.831	1.96
305.198	1.98
305.565	1.94
305.932	1.91
306.299	1.9
306.666	1.91
307.033	1.9
307.4	1.91
307.767	1.85
308.134	1.8
308.501	1.81
308.867	1.78
309.234	1.72
309.601	1.67
309.967	1.63
310.334	1.63
310.701	1.62
311.067	1.56
311.433	1.58
311.8	1.55
312.166	1.48
312.533	1.47
312.899	1.45
313.265	1.46
313.631	1.45
313.997	1.41
314.363	1.41
314.729	1.43
315.096	1.38
315.461	1.4
315.827	1.42
316.193	1.46
316.559	1.45
316.925	1.49
317.291	1.53
317.656	1.48
318.022	1.54
318.388	1.58
318.753	1.59
319.119	1.55
319.484	1.52
319.85	1.52
320.215	1.59
320.581	1.56
320.946	1.56
321.311	1.58
321.676	1.63
322.042	1.65
322.407	1.65
322.772	1.66
323.137	1.71
323.502	1.73
323.867	1.67
324.232	1.69
324.597	1.68
324.962	1.64
325.327	1.54
325.691	1.59
326.056	1.58
326.421	1.56
326.785	1.56
327.15	1.49
327.514	1.44
327.879	1.47
328.243	1.48
328.608	1.54
328.972	1.53
329.337	1.52
329.701	1.59
330.065	1.62
330.429	1.6
330.794	1.5
331.158	1.45
331.522	1.38
331.886	1.36
332.25	1.34
332.614	1.38
332.978	1.44
333.342	1.43
333.705	1.45
334.069	1.51
334.433	1.6
334.797	1.55
335.16	1.52
335.524	1.55
335.887	1.58
336.251	1.55
336.614	1.62
336.978	1.59
337.341	1.57
337.705	1.52
338.068	1.54
338.431	1.49
338.794	1.48
339.158	1.45
339.521	1.41
339.884	1.41
340.247	1.45
340.61	1.46
340.973	1.45
341.336	1.4
341.699	1.31
342.062	1.28
342.424	1.26
342.787	1.24
343.15	1.23
343.512	1.22
343.875	1.21
344.238	1.24
344.6	1.24
344.963	1.21
345.325	1.26
345.688	1.25
346.05	1.23
346.412	1.28
346.775	1.26
347.137	1.21
347.499	1.26
347.861	1.24
348.223	1.22
348.585	1.29
348.947	1.37
349.309	1.36
349.671	1.42
350.033	1.46
350.395	1.44
350.757	1.47
351.118	1.5
351.48	1.58
351.842	1.5
352.203	1.43
352.565	1.48
352.927	1.58
353.288	1.58
353.65	1.53
354.011	1.49
354.372	1.51
354.734	1.45
355.095	1.5
355.456	1.52
355.817	1.49
356.179	1.49
356.54	1.51
356.901	1.45
357.262	1.48
357.623	1.5
357.984	1.45
358.345	1.49
358.705	1.44
359.066	1.42
359.427	1.45
359.788	1.4
360.148	1.32
360.509	1.27
360.87	1.33
361.23	1.35
361.591	1.27
361.951	1.18
362.312	1.22
362.672	1.19
363.032	1.28
363.393	1.25
363.753	1.3
364.113	1.25
364.473	1.23
364.833	1.26
365.193	1.32
365.553	1.29
365.913	1.29
366.273	1.26
366.633	1.19
366.993	1.14
367.353	1.1
367.713	1.1
368.072	1.1
368.432	1.13
368.792	1.17
369.151	1.15
369.511	1.1
369.87	1.09
370.23	1.08
370.589	1.05
370.949	1.09
371.308	1
371.667	0.99
372.027	0.91
372.386	0.9
372.745	0.88
373.104	0.87
373.463	0.83
373.822	0.79
374.181	0.79
374.54	0.75
374.899	0.81
375.258	0.81
375.617	0.84
375.975	0.93
376.334	0.91
376.693	0.99
377.052	0.99
377.41	0.98
377.769	1.04
378.127	1.05
378.486	1.11
378.844	1.12
379.202	1.13
379.561	1.18
379.919	1.12
380.277	1.14
380.636	1.17
380.994	1.14
381.352	1.12
381.71	1.14
382.068	1.19
382.426	1.22
382.784	1.25
383.142	1.26
383.5	1.26
383.857	1.29
384.215	1.36
384.573	1.33
384.931	1.28
385.288	1.29
385.646	1.25
386.003	1.22
386.361	1.23
386.718	1.26
387.076	1.32
387.433	1.33
387.791	1.32
388.148	1.36
388.505	1.34
388.862	1.36
389.22	1.44
389.577	1.52
389.934	1.6
390.291	1.58
390.648	1.59
391.005	1.66
391.362	1.64
391.718	1.67
392.075	1.66
392.432	1.68
392.789	1.67
393.145	1.66
393.502	1.74
393.859	1.76
394.215	1.77
394.572	1.83
394.928	1.89
395.285	1.9
395.641	1.92
395.997	1.99
396.354	2.04
396.71	2.14
397.066	2.24
397.422	2.25
397.778	2.37
398.134	2.45
398.491	2.47
398.846	2.53
399.202	2.69
399.558	2.79
399.914	2.87
400.27	3.07
400.626	3.18
400.981	3.37
401.337	3.54
401.693	3.76
402.048	3.97
402.404	4.13
402.759	4.3
403.115	4.55
403.47	4.75
403.826	4.96
404.181	5.22
404.536	5.37
404.892	5.58
405.247	5.88
405.602	6.16
405.957	6.42
406.312	6.7
406.667	6.92
407.022	7.2
407.377	7.5
407.732	7.79
408.087	8.1
408.442	8.44
408.796	8.73
409.151	9.05
409.506	9.46
409.86	9.82
410.215	10.23
410.57	10.5
410.924	10.84
411.279	11.25
411.633	11.75
411.987	12.22
412.342	12.64
412.696	13.06
413.05	13.54
413.404	13.97
413.758	14.57
414.113	14.97
414.467	15.38
414.821	15.8
415.175	16.35
415.529	16.86
415.882	17.4
416.236	17.91
416.59	18.52
416.944	19.03
417.298	19.71
417.651	20.2
418.005	20.79
418.358	21.27
418.712	21.8
419.065	22.31
419.419	22.83
419.772	23.44
420.126	23.8
420.479	24.23
420.832	24.67
421.185	25.15
421.539	25.7
421.892	26.23
422.245	26.88
422.598	27.23
422.951	27.78
423.304	28.25
423.657	28.73
424.01	29.32
424.363	29.97
424.715	30.42
425.068	31.14
425.421	31.63
425.773	32.15
426.126	32.61
426.479	33.22
426.831	33.75
427.184	34.28
427.536	34.59
427.889	34.99
428.241	35.47
428.593	35.88
428.945	36.49
429.298	36.96
429.65	37.42
430.002	37.92
430.354	38.37
430.706	38.69
431.058	38.94
431.41	39.43
431.762	39.8
432.114	40.27
432.466	40.61
432.817	40.89
433.169	41.31
433.521	41.78
433.872	41.91
434.224	42.1
434.576	42.39
434.927	42.55
435.279	42.73
435.63	42.85
435.981	43.06
436.333	43.44
436.684	43.68
437.035	43.93
437.387	44.11
437.738	44.41
438.089	44.61
438.44	44.67
438.791	44.84
439.142	44.91
439.493	45.18
439.844	45.41
440.195	45.59
440.545	45.72
440.896	45.83
441.247	45.99
441.598	46.21
441.948	46.22
442.299	46.37
442.649	46.51
443	46.75
443.35	46.81
443.701	47.02
444.051	47.19
444.401	47.25
444.752	47.34
445.102	47.34
445.452	47.46
445.802	47.64
446.152	47.72
446.502	47.71
446.852	47.8
447.202	47.91
447.552	47.97
447.902	48.08
448.252	48.12
448.602	48.66
448.952	48.58
449.301	48.7
449.651	48.8
450.001	48.88
450.35	48.83
450.7	48.82
451.049	48.68
451.399	48.74
451.748	48.86
452.097	48.91
452.447	48.83
452.796	48.81
453.145	48.86
453.494	48.9
453.843	48.95
454.193	48.94
454.542	48.94
454.891	48.98
455.239	48.86
455.588	48.83
455.937	48.81
456.286	48.83
456.635	48.87
456.984	48.71
457.332	48.08
457.681	48.16
458.03	48.1
458.378	48
458.727	48.04
459.075	48.04
459.423	48.25
459.772	48.28
460.12	48.21
460.468	47.88
460.817	47.82
461.165	47.91
461.513	47.77
461.861	47.71
462.209	47.5
462.557	47.53
462.905	47.42
463.253	47.36
463.601	47.23
463.949	47.17
464.297	47.14
464.644	47.14
464.992	46.98
465.34	46.81
465.687	46.84
466.035	46.76
466.383	46.71
466.73	46.56
467.078	46.64
467.425	46.42
467.772	46.32
468.12	46
468.467	45.82
468.814	45.78
469.161	45.74
469.508	45.56
469.856	45.47
470.203	45.32
470.55	45.32
470.897	45.28
471.243	45.23
471.59	45.15
471.937	44.91
472.284	44.87
472.631	44.71
472.977	44.56
473.324	44.45
473.671	44.4
474.017	44.39
474.364	44.24
474.71	44.1
475.057	43.94
475.403	43.68
475.749	43.44
476.096	43.33
476.442	43.1
476.788	43.02
477.134	42.91
477.48	42.75
477.826	42.68
478.172	42.67
478.518	42.49
478.864	42.43
479.21	42.34
479.556	42.23
479.902	41.97
480.248	41.85
480.593	41.69
480.939	41.44
481.285	41.38
481.63	41.21
481.976	40.99
482.321	40.8
482.667	40.65
483.012	40.5
483.357	40.46
483.703	40.36
484.048	40.26
484.393	40.12
484.738	40.09
485.084	40
485.429	39.86
485.774	39.76
486.119	39.62
486.464	39.45
486.808	39.26
487.153	39.1
487.498	38.88
487.843	38.69
488.188	38.56
488.532	38.4
488.877	38.24
489.222	38.16
489.566	38.03
489.911	37.81
490.255	37.68
490.6	37.54
490.944	37.31
491.288	37.07
491.633	36.99
491.977	36.81
492.321	36.67
492.665	36.5
493.009	36.46
493.353	36.19
493.697	36.06
494.041	35.92
494.385	35.84
494.729	35.69
495.073	35.57
495.417	35.44
495.76	35.2
496.104	35.1
496.448	34.96
496.791	34.74
497.135	34.6
497.479	34.4
497.822	34.22
498.165	34.1
498.509	33.98
498.852	33.79
499.196	33.69
499.539	33.6
499.882	33.56
500.225	33.39
500.568	33.35
500.911	33.13
501.254	33.07
501.597	32.87
501.94	32.74
502.283	32.59
502.626	32.46
502.969	32.3
503.312	32.22
503.654	32.13
503.997	32.07
504.34	32.03
504.682	31.95
505.025	31.77
505.367	31.64
505.71	31.55
506.052	31.44
506.395	31.42
506.737	31.29
507.079	31.19
507.421	31.12
507.764	31.01
508.106	30.84
508.448	30.63
508.79	30.47
509.132	30.25
509.474	30.16
509.816	30
510.158	29.92
510.499	29.87
510.841	29.78
511.183	29.62
511.525	29.49
511.866	29.41
512.208	29.29
512.549	29.1
512.891	28.9
513.232	28.82
513.574	28.78
513.915	28.76
514.256	28.57
514.598	28.48
514.939	28.36
515.28	28.3
515.621	28.16
515.962	28.03
516.303	27.94
516.644	27.84
516.985	27.72
517.326	27.58
517.667	27.47
518.008	27.38
518.349	27.37
518.69	27.22
519.03	27.01
519.371	26.99
519.712	26.91
520.052	26.66
520.393	26.47
520.733	26.24
521.074	26.12
521.414	26.11
521.754	25.93
522.095	25.76
522.435	25.65
522.775	25.66
523.115	25.47
523.455	25.25
523.795	25.18
524.135	25.16
524.475	25.05
524.815	24.85
525.155	24.77
525.495	24.68
525.835	24.6
526.175	24.54
526.514	24.4
526.854	24.27
527.194	24.13
527.533	24.13
527.873	23.93
528.212	23.87
528.552	23.99
528.891	23.98
529.23	24.04
529.57	24.07
529.909	23.95
530.248	23.87
530.587	23.78
530.927	23.69
531.266	23.5
531.605	23.47
531.944	23.38
532.283	23.16
532.621	23.01
532.96	23
533.299	23.01
533.638	22.99
533.977	22.94
534.315	22.98
534.654	22.9
534.992	22.8
535.331	22.81
535.67	22.77
536.008	22.68
536.346	22.73
536.685	22.72
537.023	22.56
537.361	22.47
537.7	22.37
538.038	22.27
538.376	22.22
538.714	22.15
539.052	22.08
539.39	22
539.728	21.96
540.066	21.79
540.404	21.72
540.741	21.65
541.079	21.69
541.417	21.66
541.755	21.54
542.092	21.44
542.43	21.45
542.767	21.38
543.105	21.34
543.442	21.39
543.78	21.21
544.117	21.24
544.454	21.23
544.792	21.13
545.129	21.14
545.466	21.17
545.803	21.13
546.14	21.08
546.477	21.04
546.814	21.12
547.151	21.21
547.488	21.1
547.825	21.06
548.162	21.12
548.499	21.15
548.835	21.25
549.172	21.28
549.509	21.2
549.845	21.07
550.182	21.1
550.518	21.09
550.855	21.01
551.191	21.02
551.528	21.01
551.864	21
552.2	21.19
552.537	21.18
552.873	21.12
553.209	21.08
553.545	21.03
553.881	21.02
554.217	20.92
554.553	20.96
554.889	20.96
555.225	20.84
555.561	20.65
555.896	20.74
556.232	20.66
556.568	20.69
556.903	20.81
557.239	20.71
557.575	20.78
557.91	20.76
558.245	20.91
558.581	20.91
558.916	21.05
559.252	21.23
559.587	21.18
559.922	21.21
560.257	21.26
560.592	21.15
560.928	21.12
561.263	21.18
561.598	21.16
561.933	21.09
562.267	21.24
562.602	21.44
562.937	21.43
563.272	21.48
563.607	21.56
563.941	21.71
564.276	21.86
564.611	21.96
564.945	21.99
565.28	22.04
565.614	22.18
565.949	22.19
566.283	22.24
566.617	22.33
566.951	22.39
567.286	22.48
567.62	22.43
567.954	22.47
568.288	22.57
568.622	22.6
568.956	22.56
569.29	22.59
569.624	22.58
569.958	22.71
570.292	22.87
570.626	22.88
570.959	22.91
571.293	23.07
571.627	23.12
571.96	23.25
572.294	23.32
572.627	23.34
572.961	23.4
573.294	23.36
573.627	23.39
573.961	23.41
574.294	23.48
574.627	23.62
574.961	23.6
575.294	23.71
575.627	23.77
575.96	23.8
576.293	23.92
576.626	23.94
576.959	23.96
577.292	24.06
577.624	24.14
577.957	24.34
578.29	24.41
578.623	24.41
578.955	24.41
579.288	24.42
579.62	24.42
579.953	24.55
580.285	24.54
580.618	24.61
580.95	24.74
581.282	24.89
581.615	25.02
581.947	25.09
582.279	25.14
582.611	25.22
582.943	25.2
583.275	25.3
583.607	25.47
583.939	25.49
584.271	25.61
584.603	25.59
584.935	25.67
585.267	25.81
585.598	25.98
585.93	26.02
586.262	26.01
586.593	25.99
586.925	26.1
587.256	26.34
587.588	26.51
587.919	26.57
588.25	26.66
588.582	26.8
588.913	26.95
589.244	27
589.575	27.12
589.907	27.28
590.238	27.51
590.569	27.75
590.9	27.86
591.231	28.03
591.562	28.19
591.892	28.23
592.223	28.5
592.554	28.74
592.885	29.06
593.215	29.27
593.546	29.29
593.877	29.34
594.207	29.53
594.538	29.63
594.868	29.85
595.198	30
595.529	30.14
595.859	30.26
596.189	30.45
596.52	30.54
596.85	30.69
597.18	30.72
597.51	30.85
597.84	30.87
598.17	31.05
598.5	31.1
598.83	31.26
599.16	31.53
599.489	31.74
599.819	31.86
600.149	31.99
600.479	32.08
600.808	32.23
601.138	32.35
601.467	32.5
601.797	32.81
602.126	33.1
602.456	33.33
602.785	33.52
603.114	33.79
603.443	33.99
603.773	34.22
604.102	34.44
604.431	34.65
604.76	34.86
605.089	35.05
605.418	35.32
605.747	35.53
606.076	35.74
606.405	35.75
606.733	36.08
607.062	36.17
607.391	36.46
607.72	36.65
608.048	36.98
608.377	37.31
608.705	37.71
609.034	38.04
609.362	38.26
609.69	38.54
610.019	38.84
610.347	38.99
610.675	39.29
611.004	39.72
611.332	39.87
611.66	40.23
611.988	40.27
612.316	40.51
612.644	40.73
612.972	40.95
613.3	41.09
613.627	41.31
613.955	41.64
614.283	42.12
614.611	42.68
614.938	42.78
615.266	43.29
615.593	43.48
615.921	43.79
616.248	44.32
616.576	44.63
616.903	44.74
617.23	44.82
617.558	45.32
617.885	45.57
618.212	45.62
618.539	46.02
618.866	46.27
619.193	46.22
619.52	46.28
619.847	46.59
620.174	46.8
620.501	47.03
620.828	47.03
621.155	47.13
621.481	47.42
621.808	47.64
622.135	47.7
622.461	47.54
622.788	47.51
623.114	47.9
623.441	47.65
623.767	47.78
624.093	47.9
624.42	47.66
624.746	47.93
625.072	48.08
625.398	48.33
625.725	48.33
626.051	48.6
626.377	48.92
626.703	48.98
627.029	48.98
627.354	49.4
627.68	49.81
628.006	49.76
628.332	50.06
628.658	50.4
628.983	50.58
629.309	50.83
629.634	50.89
629.96	51.1
630.285	51.19
630.611	51.5
630.936	51.72
631.262	51.59
631.587	51.73
631.912	51.86
632.237	52.08
632.562	52.41
632.887	52.73
633.213	53.58
633.538	54.17
633.863	54.42
634.187	54.22
634.512	54.45
634.837	54.94
635.162	55.35
635.487	55.49
635.811	55.84
636.136	56.07
636.461	56.49
636.785	56.2
637.11	57.11
637.434	57.7
637.758	58.5
638.083	58.95
638.407	59.58
638.731	59.85
639.056	59.63
639.38	60.01
639.704	60.65
640.028	61.27
640.352	61.54
640.676	62.19
641	61.87
641.324	62.02
641.648	61.73
641.972	61.77
642.295	62.62
642.619	62.85
642.943	62.51
643.266	61.89
643.59	62.23
643.913	62.63
644.237	62.71
644.56	62.66
644.884	63.08
645.207	62.66
645.53	62.08
645.854	62.25
646.177	62.19
646.5	62.2
646.823	62.36
647.146	63.66
647.469	63.64
647.792	64.07
648.115	63.24
648.438	64
648.761	65.43
649.084	65.59
649.406	65.26
649.729	64.23
650.052	63.73
650.374	63.59
650.697	63.61
651.019	63.73
651.342	63.98
651.664	63.99
651.987	63.86
652.309	63.85
652.631	63.83
652.953	63.86
653.276	63.94
653.598	64.15
653.92	64.16
654.242	64.22
654.564	64.07
654.886	64.11
655.208	63.69
655.53	63.7
655.851	63.47
656.173	63.56
656.495	63.31
656.816	62.66
657.138	62.16
657.46	61.56
657.781	62.25
658.103	63.18
658.424	63.16
658.746	63.19
659.067	62.68
659.388	63.24
659.709	62.86
660.031	63.2
660.352	63.36
660.673	63.54
660.994	63.37
661.315	63.03
661.636	63.03
661.957	62.85
662.278	63.1
662.599	63.57
662.919	63.43
663.24	64.14
663.561	64.61
663.881	64.8
664.202	64.59
664.523	64.31
664.843	63.47
665.164	62.96
665.484	63.07
665.804	63.65
666.125	64.48
666.445	65.74
666.765	65.91
667.085	66.6
667.405	66.07
667.726	67.1
668.046	67.19
668.366	67.19
668.686	67.22
669.005	67.18
669.325	67.34
669.645	67.2
669.965	66.11
670.285	65.62
670.604	65.35
670.924	65.49
671.243	65.57
671.563	64.81
671.882	65.24
672.202	65.89
672.521	66.63
672.841	66.39
673.16	67.01
673.479	66.82
673.798	67.01
674.117	67.21
674.437	66.3
674.756	66.21
675.075	66.15
675.394	65.8
675.713	65
676.031	64.98
676.35	65.08
676.669	65.31
676.988	65.86
677.306	65.65
677.625	65.35
677.944	66.11
678.262	65.82
678.581	66.66
678.899	67.34
679.218	67.31
679.536	68.38
679.854	67.78
680.172	67.55
680.491	66.77
680.809	67.16
681.127	67.1
681.445	66.29
681.763	65.75
682.081	64.63
682.399	64.63
682.717	64.41
683.035	64.32
683.352	64.73
683.67	65.18
683.988	65.1
684.306	64.89
684.623	64.69
684.941	64.59
685.258	64.39
685.576	64.89
685.893	65.33
686.211	65.97
686.528	66.06
686.845	65.56
687.162	65.41
687.48	64.49
687.797	64.72
688.114	65.36
688.431	65.42
688.748	65.8
689.065	66.17
689.382	67.27
689.699	68.47
690.015	69.92
690.332	70.16
690.649	70.44
690.966	70.77
691.282	70.36
691.599	69.77
691.915	68.93
692.232	69.61
692.548	69.61
692.865	69.03
693.181	69.43
693.497	69.31
693.813	68.92
694.13	68.42
694.446	68.71
694.762	69.05
695.078	68.42
695.394	69.06
695.71	68.64
696.026	67.13
696.342	67.1
696.658	66.79
696.973	66.62
697.289	66.48
697.605	65.63
697.92	64.21
698.236	63.15
698.551	62.69
698.867	62.12
699.182	62.62
699.498	63.04
699.813	63.9
700.128	63.39
700.444	63.86
700.759	63.52
701.074	63.14
701.389	63.45
701.704	63.89
702.019	64.03
702.334	62.79
702.649	62.53
702.964	62.83
703.279	62.15
703.594	62.61
703.908	64.01
704.223	64.23
704.538	64.44
704.852	64.81
705.167	65.71
705.481	65.91
705.796	67.23
706.11	67.64
706.425	67.78
706.739	68
707.053	67.89
707.368	68.09
707.682	68.04
707.996	67.45
708.31	67.94
708.624	68.67
708.938	69.86
709.252	68.62
709.566	68.44
709.88	67.73
710.193	68.1
710.507	67.21
710.821	67.92
711.135	66.79
711.448	66.72
711.762	66.72
712.075	66.73
712.389	66.45
712.702	65.88
713.015	65.7
713.329	65.2
713.642	64.2
713.955	64.21
714.269	64.08
714.582	63.26
714.895	62.89
715.208	63.7
715.521	63.03
715.834	63.07
716.147	63.01
716.459	62.76
716.772	62.65
717.085	64.04
717.398	63.72
717.71	64.26
718.023	64.77
718.336	65.12
718.648	65.36
718.961	67.38
719.273	66.87
719.585	66.13
719.898	66.75
720.21	66.61
720.522	67.02
720.834	65.75
721.147	66.41
721.459	67.41
721.771	69.22
722.083	69.01
722.395	68.38
722.707	68.61
723.019	65.67
723.33	65.88
723.642	65.63
723.954	64.6
724.265	65.85
724.577	65.07
724.889	64.42
725.2	64
725.512	63.64
725.823	63.66
726.135	63.77
726.446	63.91
726.757	63.62
727.068	65.08
727.38	65.58
727.691	64.83
728.002	65.31
728.313	64.4
728.624	64.51
728.935	63.56
729.246	62.65
729.557	62.69
729.867	63.04
730.178	64.22
730.489	64.18
730.8	65.27
731.11	65.21
731.421	65.8
731.731	66.03
732.042	64.81
732.352	64.44
732.663	63.73
732.973	64.6
733.283	65.33
733.594	65.23
733.904	65.88
734.214	65.6
734.524	64.6
734.834	63.77
735.144	62.67
735.454	63.55
735.764	62.79
736.074	62.88
736.384	62.38
736.694	63.19
737.003	64.49
737.313	63.06
737.623	62.05
737.932	62.48
738.242	61.62
738.551	61.64
738.861	62.15
739.17	61.84
739.479	60.98
739.789	61.53
740.098	62.91
740.407	65.02
740.716	63.86
741.025	64.04
741.334	63.32
741.643	64
741.952	63.21
742.261	63.7
742.57	65.91
742.879	67.33
743.188	64.82
743.497	64.58
743.805	65.67
744.114	68.25
744.422	68.54
744.731	68.13
745.04	67.51
745.348	70.4
745.656	70.01
745.965	69.52
746.273	67.17
746.581	66.13
746.889	65.65
747.198	67.78
747.506	69.45
747.814	69.48
748.122	68.73
748.43	69.69
748.738	70.7
749.046	71.73
749.353	68.53
749.661	69.16
749.969	72.15
750.277	70.98
750.584	70.02
750.892	71.2
751.199	72.18
751.507	71.17
751.814	71.42
752.122	69.26
752.429	68.3
752.736	69.27
753.044	68.87
753.351	68.17
753.658	69.68
753.965	72.68
754.272	72.86
754.579	73.49
754.886	72.03
755.193	69.69
755.5	68.9
755.807	67.51
756.114	67.92
756.42	67.66
756.727	66.92
757.034	68.79
757.34	67.26
757.647	65.18
757.953	63.51
758.26	62.95
758.566	63.68
758.872	64.01
759.179	65.48
759.485	65.02
759.791	66.24
760.097	64.38
760.403	64.88
760.709	64.6
761.015	62.5
761.321	62.18
761.627	62.13
761.933	59.78
762.239	60.82
762.545	60.65
762.851	62.85
763.156	60.66
763.462	63.71
763.767	63.58
764.073	58.96
764.378	59.39
764.684	60.67
764.989	63.38
765.295	65.14
765.6	64.98
765.905	67.91
766.21	67.19
766.515	66.45
766.821	64.12
767.126	62.73
767.431	64.05
767.736	67.4
768.041	61.99
768.345	60.4
768.65	62.99
768.955	61.78
769.26	61.03
769.564	65.2
769.869	62.09
770.174	64
770.478	66.69
770.783	72.63
771.087	69.39
771.391	66.09
771.696	74.4
772	76.84
772.304	75.89
772.608	73.04
772.913	75.72
773.217	78.34
773.521	77.33
773.825	74.8
774.129	71.29
774.433	70.09
774.736	69.49
775.04	68.5
775.344	66.37
775.648	69.19
775.951	67.88
776.255	70
776.559	70.26
776.862	67.34
777.166	69.09
777.469	69.53
777.772	68.21
778.076	67.14
778.379	65.09
778.682	65.52
778.985	68.04
779.289	66.55
779.592	62.03
779.895	60.03
780.198	61.35
780.501	56.92
780.804	58.81
781.106	59.54
781.409	59.28
781.712	64.71
782.015	67.39
782.317	70.61
782.62	69.03
782.923	70.43
783.225	75.9
783.527	76.78
783.83	74.57
784.132	78.49
784.435	84.5
784.737	81.31
785.039	82.51
785.341	86.04
785.643	75.59
785.945	72.41
786.248	80.37
786.55	78.88
786.851	72.49
787.153	68.72
787.455	71.19
787.757	74.45
788.059	74.2
788.36	70.31
788.662	71.41
788.964	71.22
789.265	71.25
789.567	67.22
789.868	59.84
790.17	67.47
790.471	67.89
790.772	62.89
791.074	65.19
791.375	64.23
791.676	57.29
791.977	54.26
792.278	54.35
792.579	52.33
792.88	46.28
793.181	54.54
793.482	60.13
793.783	49.51
794.083	48.03
794.384	51.26
794.685	57.58
794.986	57.3
795.286	49.06
795.587	48.44
795.887	49.39
796.188	44.81
796.488	52.37
796.788	50.61
797.089	55.5
797.389	49.55
797.689	44.92
797.989	43.05
798.289	49.21
798.589	52.28
798.889	51.66
799.189	56.24
799.489	60.12
799.789	55.88
800.089	56.29
800.389	61.47
800.688	62.27
800.988	67.65
801.288	73.78
801.587	75.4
801.887	70.66
802.186	65.01
802.486	58.42
802.785	62
803.085	73.47
803.384	82.35
803.683	87.89
803.982	70.06
804.281	69.92
804.58	57.11
804.879	87.16
805.178	88.78
805.477	85.38
805.776	77.91
806.075	69.42
806.374	73.28
806.673	69.18
806.971	65.88
807.27	64.47
807.569	75.94
807.867	60.19
808.166	61.67
808.464	57.62
808.763	64.48
809.061	76.02
809.359	76.74
809.658	97.28
809.956	128.74
810.254	157.51
810.552	139.25
810.85	116.43
811.148	106.73
811.446	106.31
811.744	102.17
812.042	121.71
812.34	97.56
812.638	90.65
812.935	114.29
813.233	103.43
813.531	100.56
813.828	115.65
814.126	128.32
814.423	125.55
814.721	134.97
815.018	138.47
815.316	159.28
815.613	157.89
815.91	146.07
816.207	129.38
816.504	137.11
816.802	120.75
817.099	89.92
817.396	55.74
817.693	65
817.99	69.9
818.286	63.57
818.583	69.01
818.88	92.95
819.177	86.29
819.473	102.5
819.77	85.73
820.067	70.88
820.363	61.16
820.66	46.99
820.956	50.43
821.252	37.32
821.549	38.5
821.845	52.38
822.141	45.8
822.437	63.22
822.734	75.15
823.03	68.25
823.326	72.4
823.622	80.91
823.918	64.86
824.213	71.8
824.509	76.26
824.805	86.01
825.101	67.89
825.397	87.71
825.692	89
825.988	69.01
826.283	59.55
826.579	76.95
826.874	52.7
827.17	65.87
827.465	80.52
827.76	96.9
828.056	97.76
828.351	97.65
828.646	86.91
828.941	93.5
829.236	74.54
829.531	76.68
829.826	62.46
830.121	68.61
830.416	76.26
830.711	71.44
831.006	61.76
831.3	58.83
831.595	50.38
831.89	43.31
832.184	42.26
832.479	41.03
832.773	30.52
833.068	32.61
833.362	39.87
833.656	42.45
833.951	36.39
834.245	43
834.539	34.43
834.833	29
835.127	29.03
835.421	44.52
835.715	48.32
836.009	53.43
836.303	55.56
836.597	52.59
836.891	53.29
837.185	51.09
837.478	31.18
837.772	30.39
838.066	25.82
838.359	22.5
838.653	22.1
838.946	31.77
839.24	28.11
839.533	32.46
839.826	49
840.119	48.91
840.413	61.31
840.706	49.16
840.999	73.5
841.292	74.85
841.585	59.42
841.878	59.77
842.171	58.56
842.464	47.65
842.757	40.2
843.049	44.27
843.342	30.19
843.635	13.51
843.927	29
844.22	32.48
844.513	21.22
844.805	30.24
845.098	31.86
845.39	32.55
845.682	43.2
845.975	33.58
846.267	40.65
846.559	68.96
846.851	64.24
847.143	32.71
847.435	45.23
847.727	23.2
848.019	35.64
848.311	26.38
848.603	24.72
848.895	37.1
849.186	37.62
849.478	36.76
849.77	40.53
850.061	43.42
850.353	39.66
850.645	39.15
850.936	48.02
851.227	44.73
851.519	43.61
851.81	42.95
852.101	51.28
852.393	46.68
852.684	48.74
852.975	56.16
853.266	53.49
853.557	33.5
853.848	25.76
854.139	23.01
854.43	26.24
854.72	21.54
855.011	18.82
855.302	24.88
855.593	32.41
855.883	27.81
856.174	12.63
856.464	22.58
856.755	35.11
857.045	38.87
857.336	54.59
857.626	72.93
857.916	80.04
858.206	65.08
858.497	69.69
858.787	81.26
859.077	69.07
859.367	50.64
859.657	46.65
859.947	41.84
860.237	29.73
860.527	42.48
860.816	68.46
861.106	74.78
861.396	89.73
861.685	92.33
861.975	71.45
862.265	65.25
862.554	48.47
862.844	-19.73
863.133	-39.4
863.422	-22.47
863.712	-12.59
864.001	-11.48
864.29	-15.68
864.579	-44.81
864.868	-43.08
865.157	-67.16
865.446	-74.41
865.735	-87.47
866.024	-119.21
866.313	-94.38
866.602	-109.47
866.891	-155.22
867.179	-180.17
867.468	-115.93
