Data from T1_Reflection__146__15-22-30-842.txt Node

Date: Thu Jun 03 15:22:30 CEST 2021
User: mabdelazizm
Spectrometer: FLMS18565
Trigger mode: 0
Integration Time (sec): 2.000000E0
Scans to average: 1
Electric dark correction enabled: true
Nonlinearity correction enabled: false
Boxcar width: 12
XAxis mode: Wavelengths
Number of Pixels in Spectrum: 2048
>>>>>Begin Spectral Data<<<<<
179.071	84.92
179.452	105.55
179.833	107.1
180.214	120.23
180.595	120.71
180.977	108.35
181.358	120
181.739	103.69
182.12	95.52
182.501	78.91
182.882	53.77
183.262	48.24
183.643	29.04
184.024	11.29
184.405	10.25
184.786	1.98
185.166	2.71
185.547	11.2
185.927	1.65
186.308	6.86
186.689	17.21
187.069	14.33
187.449	17.02
187.83	13.68
188.21	13.61
188.59	11.82
188.971	9.45
189.351	8.28
189.731	3.62
190.111	6.42
190.491	5.77
190.871	5.71
191.251	8.52
191.631	9.23
192.011	12.12
192.391	14.85
192.771	16.37
193.151	16.37
193.531	16.25
193.91	15.61
194.29	15.3
194.67	15.68
195.049	14.05
195.429	15.18
195.808	13.05
196.188	10.23
196.567	9.16
196.946	8.23
197.326	7.73
197.705	8.34
198.084	8.76
198.464	7.76
198.843	8.63
199.222	8.25
199.601	10.05
199.98	10.76
200.359	12.82
200.738	13.27
201.117	12.65
201.496	10.39
201.875	9.44
202.254	8.18
202.632	9.1
203.011	9.78
203.39	10.44
203.768	11.77
204.147	10.17
204.525	9.26
204.904	9.9
205.282	11.86
205.661	10.97
206.039	13.44
206.418	13.6
206.796	15.25
207.174	14.84
207.552	14.72
207.931	13.84
208.309	13.48
208.687	13.46
209.065	13.68
209.443	12.87
209.821	11.29
210.199	10.62
210.577	10.77
210.954	11.78
211.332	11.11
211.71	10.21
212.088	10.28
212.465	9.27
212.843	7.97
213.221	7.13
213.598	7.48
213.976	6.96
214.353	6.47
214.731	6.49
215.108	8.04
215.485	6.35
215.863	5.35
216.24	4.61
216.617	5.51
216.994	5.93
217.371	6.15
217.749	4.38
218.126	4.19
218.503	3.47
218.88	4.43
219.256	4.61
219.633	3.7
220.01	3.27
220.387	4.96
220.764	5.09
221.14	5.78
221.517	5.65
221.894	6.16
222.27	6.49
222.647	6.13
223.023	5.79
223.4	6.41
223.776	6
224.153	5.93
224.529	5.32
224.905	6.02
225.282	6.47
225.658	6.69
226.034	6.25
226.41	6.17
226.786	6.27
227.162	6.64
227.538	6.48
227.914	6.34
228.29	6.23
228.666	5.95
229.042	6.58
229.418	6.75
229.793	6.38
230.169	6.51
230.545	6.53
230.92	6.48
231.296	6.16
231.672	5.91
232.047	5.8
232.422	5.88
232.798	5.8
233.173	5.85
233.549	5.6
233.924	5.65
234.299	5.46
234.674	5.31
235.05	5.11
235.425	5.21
235.8	5.18
236.175	5.1
236.55	5.01
236.925	5.05
237.3	5.04
237.675	4.95
238.049	5.12
238.424	4.98
238.799	4.97
239.174	4.88
239.548	4.85
239.923	4.8
240.297	4.77
240.672	4.85
241.046	4.87
241.421	4.93
241.795	4.91
242.17	4.97
242.544	4.97
242.918	5.06
243.293	5.09
243.667	5.04
244.041	5.04
244.415	5.03
244.789	4.91
245.163	4.88
245.537	4.88
245.911	4.83
246.285	4.8
246.659	4.72
247.033	4.72
247.406	4.58
247.78	4.54
248.154	4.51
248.528	4.51
248.901	4.47
249.275	4.41
249.648	4.36
250.022	4.34
250.395	4.32
250.769	4.32
251.142	4.29
251.515	4.19
251.888	4.17
252.262	4.11
252.635	4.05
253.008	4.03
253.381	4.03
253.754	4.05
254.127	4.09
254.5	4.06
254.873	4.09
255.246	4.14
255.619	4.13
255.992	4.15
256.364	4.08
256.737	4.05
257.11	4.05
257.483	4.02
257.855	3.98
258.228	3.97
258.6	3.97
258.973	4.01
259.345	3.97
259.718	3.93
260.09	3.9
260.462	3.9
260.834	3.91
261.207	3.9
261.579	3.92
261.951	3.93
262.323	3.92
262.695	3.9
263.067	3.92
263.439	3.94
263.811	3.93
264.183	3.85
264.555	3.83
264.927	3.83
265.298	3.84
265.67	3.82
266.042	3.85
266.413	3.82
266.785	3.84
267.156	3.91
267.528	3.96
267.899	3.96
268.271	3.92
268.642	3.92
269.013	3.89
269.385	3.88
269.756	3.89
270.127	3.89
270.498	3.84
270.87	3.74
271.241	3.7
271.612	3.69
271.983	3.67
272.354	3.64
272.724	3.57
273.095	3.54
273.466	3.55
273.837	3.53
274.208	3.51
274.578	3.5
274.949	3.57
275.32	3.61
275.69	3.63
276.061	3.57
276.431	3.52
276.802	3.43
277.172	3.41
277.542	3.39
277.913	3.36
278.283	3.39
278.653	3.36
279.023	3.38
279.394	3.35
279.764	3.38
280.134	3.38
280.504	3.35
280.874	3.32
281.244	3.32
281.614	3.29
281.983	3.26
282.353	3.3
282.723	3.29
283.093	3.27
283.462	3.23
283.832	3.23
284.202	3.23
284.571	3.21
284.941	3.19
285.31	3.16
285.68	3.12
286.049	3.13
286.418	3.09
286.788	3.13
287.157	3.11
287.526	3.16
287.895	3.13
288.264	3.14
288.633	3.08
289.002	3.04
289.371	3.05
289.74	3.11
290.109	3.14
290.478	3.13
290.847	3.13
291.216	3.15
291.585	3.11
291.953	3.08
292.322	3.11
292.691	3.16
293.059	3.09
293.428	3.04
293.796	3
294.165	2.97
294.533	2.99
294.901	3.01
295.27	3.03
295.638	3.06
296.006	2.92
296.374	2.95
296.743	2.84
297.111	2.8
297.479	2.69
297.847	2.72
298.215	2.69
298.583	2.71
298.95	2.7
299.318	2.71
299.686	2.69
300.054	2.76
300.422	2.78
300.789	2.76
301.157	2.76
301.525	2.72
301.892	2.68
302.26	2.72
302.627	2.71
302.994	2.71
303.362	2.71
303.729	2.69
304.097	2.65
304.464	2.56
304.831	2.55
305.198	2.57
305.565	2.55
305.932	2.56
306.299	2.59
306.666	2.58
307.033	2.57
307.4	2.66
307.767	2.58
308.134	2.52
308.501	2.49
308.867	2.48
309.234	2.39
309.601	2.37
309.967	2.39
310.334	2.39
310.701	2.37
311.067	2.35
311.433	2.33
311.8	2.34
312.166	2.33
312.533	2.34
312.899	2.36
313.265	2.37
313.631	2.42
313.997	2.41
314.363	2.45
314.729	2.43
315.096	2.42
315.461	2.43
315.827	2.45
316.193	2.48
316.559	2.42
316.925	2.45
317.291	2.47
317.656	2.41
318.022	2.45
318.388	2.51
318.753	2.48
319.119	2.44
319.484	2.48
319.85	2.48
320.215	2.48
320.581	2.46
320.946	2.44
321.311	2.45
321.676	2.47
322.042	2.43
322.407	2.45
322.772	2.44
323.137	2.47
323.502	2.48
323.867	2.5
324.232	2.52
324.597	2.53
324.962	2.53
325.327	2.45
325.691	2.51
326.056	2.52
326.421	2.51
326.785	2.54
327.15	2.49
327.514	2.42
327.879	2.46
328.243	2.48
328.608	2.49
328.972	2.54
329.337	2.58
329.701	2.65
330.065	2.68
330.429	2.67
330.794	2.56
331.158	2.57
331.522	2.48
331.886	2.46
332.25	2.36
332.614	2.42
332.978	2.42
333.342	2.43
333.705	2.44
334.069	2.43
334.433	2.52
334.797	2.43
335.16	2.39
335.524	2.39
335.887	2.38
336.251	2.42
336.614	2.43
336.978	2.37
337.341	2.32
337.705	2.28
338.068	2.31
338.431	2.24
338.794	2.22
339.158	2.19
339.521	2.21
339.884	2.27
340.247	2.3
340.61	2.31
340.973	2.34
341.336	2.38
341.699	2.29
342.062	2.29
342.424	2.26
342.787	2.24
343.15	2.24
343.512	2.17
343.875	2.23
344.238	2.31
344.6	2.37
344.963	2.4
345.325	2.37
345.688	2.36
346.05	2.38
346.412	2.41
346.775	2.4
347.137	2.31
347.499	2.33
347.861	2.34
348.223	2.31
348.585	2.33
348.947	2.34
349.309	2.28
349.671	2.34
350.033	2.36
350.395	2.35
350.757	2.41
351.118	2.37
351.48	2.45
351.842	2.38
352.203	2.38
352.565	2.47
352.927	2.49
353.288	2.42
353.65	2.37
354.011	2.38
354.372	2.41
354.734	2.42
355.095	2.41
355.456	2.47
355.817	2.45
356.179	2.49
356.54	2.51
356.901	2.44
357.262	2.47
357.623	2.47
357.984	2.45
358.345	2.55
358.705	2.58
359.066	2.57
359.427	2.64
359.788	2.57
360.148	2.59
360.509	2.54
360.87	2.56
361.23	2.5
361.591	2.43
361.951	2.39
362.312	2.43
362.672	2.43
363.032	2.44
363.393	2.46
363.753	2.48
364.113	2.5
364.473	2.44
364.833	2.43
365.193	2.44
365.553	2.37
365.913	2.38
366.273	2.37
366.633	2.35
366.993	2.35
367.353	2.24
367.713	2.17
368.072	2.17
368.432	2.14
368.792	2.22
369.151	2.19
369.511	2.18
369.87	2.25
370.23	2.32
370.589	2.32
370.949	2.39
371.308	2.44
371.667	2.45
372.027	2.39
372.386	2.39
372.745	2.34
373.104	2.33
373.463	2.33
373.822	2.39
374.181	2.32
374.54	2.37
374.899	2.46
375.258	2.4
375.617	2.33
375.975	2.34
376.334	2.42
376.693	2.5
377.052	2.56
377.41	2.61
377.769	2.61
378.127	2.67
378.486	2.72
378.844	2.73
379.202	2.71
379.561	2.74
379.919	2.73
380.277	2.69
380.636	2.73
380.994	2.78
381.352	2.83
381.71	2.94
382.068	3.04
382.426	3.1
382.784	3.09
383.142	3.25
383.5	3.27
383.857	3.32
384.215	3.51
384.573	3.58
384.931	3.64
385.288	3.63
385.646	3.65
386.003	3.64
386.361	3.69
386.718	3.8
387.076	3.91
387.433	4.03
387.791	4.08
388.148	4.31
388.505	4.43
388.862	4.51
389.22	4.65
389.577	4.73
389.934	4.89
390.291	5.02
390.648	5.14
391.005	5.38
391.362	5.54
391.718	5.72
392.075	5.84
392.432	6.1
392.789	6.29
393.145	6.43
393.502	6.76
393.859	7.01
394.215	7.33
394.572	7.65
394.928	7.98
395.285	8.3
395.641	8.55
395.997	8.88
396.354	9.19
396.71	9.57
397.066	9.9
397.422	10.26
397.778	10.65
398.134	11.04
398.491	11.56
398.846	11.99
399.202	12.5
399.558	12.83
399.914	13.19
400.27	13.81
400.626	14.28
400.981	14.86
401.337	15.37
401.693	15.93
402.048	16.53
402.404	17.06
402.759	17.7
403.115	18.34
403.47	18.96
403.826	19.5
404.181	20.14
404.536	20.72
404.892	21.24
405.247	21.82
405.602	22.43
405.957	23.04
406.312	23.66
406.667	24.28
407.022	24.91
407.377	25.47
407.732	26.05
408.087	26.56
408.442	27.35
408.796	28.03
409.151	28.53
409.506	29.19
409.86	29.75
410.215	30.4
410.57	30.97
410.924	31.61
411.279	32.13
411.633	32.69
411.987	33.24
412.342	33.77
412.696	34.26
413.05	34.7
413.404	35.27
413.758	35.94
414.113	36.52
414.467	37.06
414.821	37.5
415.175	38.17
415.529	38.73
415.882	39.31
416.236	39.83
416.59	40.38
416.944	40.86
417.298	41.27
417.651	41.76
418.005	42.22
418.358	42.68
418.712	43.06
419.065	43.48
419.419	43.92
419.772	44.21
420.126	44.59
420.479	44.96
420.832	45.26
421.185	45.58
421.539	45.94
421.892	46.33
422.245	46.59
422.598	46.79
422.951	47.06
423.304	47.22
423.657	47.5
424.01	47.64
424.363	47.88
424.715	48.03
425.068	48.29
425.421	48.48
425.773	48.72
426.126	49.01
426.479	49.02
426.831	49.3
427.184	49.37
427.536	49.57
427.889	49.67
428.241	49.74
428.593	50.01
428.945	50.19
429.298	50.28
429.65	50.49
430.002	50.79
430.354	50.99
430.706	51.04
431.058	51.2
431.41	51.46
431.762	51.75
432.114	51.97
432.466	52.07
432.817	52.2
433.169	52.35
433.521	52.64
433.872	52.66
434.224	52.77
434.576	52.99
434.927	52.98
435.279	53.24
435.63	53.23
435.981	53.44
436.333	53.64
436.684	53.64
437.035	53.8
437.387	53.8
437.738	53.95
438.089	54.11
438.44	54.18
438.791	54.24
439.142	54.32
439.493	54.61
439.844	54.68
440.195	54.72
440.545	54.57
440.896	54.64
441.247	54.66
441.598	54.76
441.948	54.85
442.299	54.78
442.649	54.88
443	54.97
443.35	55
443.701	55.03
444.051	55.08
444.401	55.24
444.752	55.24
445.102	55.24
445.452	55.35
445.802	55.5
446.152	55.5
446.502	55.46
446.852	55.49
447.202	55.34
447.552	55.31
447.902	55.33
448.252	55.25
448.602	55.81
448.952	55.79
449.301	55.97
449.651	56.11
450.001	56.2
450.35	56.2
450.7	56.09
451.049	56.03
451.399	56.22
451.748	56.21
452.097	56.08
452.447	56.19
452.796	56.23
453.145	56.13
453.494	56.1
453.843	55.99
454.193	56.06
454.542	55.88
454.891	56.02
455.239	55.99
455.588	55.83
455.937	56.01
456.286	56.08
456.635	56.1
456.984	56.05
457.332	55.42
457.681	55.37
458.03	55.07
458.378	54.97
458.727	54.96
459.075	54.94
459.423	55.09
459.772	55.19
460.12	55.05
460.468	55.03
460.817	55.01
461.165	55
461.513	54.96
461.861	54.96
462.209	54.9
462.557	54.91
462.905	54.79
463.253	54.86
463.601	54.64
463.949	54.63
464.297	54.71
464.644	54.49
464.992	54.19
465.34	54.19
465.687	54.26
466.035	54.19
466.383	54.2
466.73	54.18
467.078	54.12
467.425	54.12
467.772	54.09
468.12	53.83
468.467	53.72
468.814	53.71
469.161	53.52
469.508	53.43
469.856	53.27
470.203	53.05
470.55	52.94
470.897	52.84
471.243	52.74
471.59	52.66
471.937	52.41
472.284	52.57
472.631	52.39
472.977	52.23
473.324	52.26
473.671	52.34
474.017	52.1
474.364	51.89
474.71	51.82
475.057	51.74
475.403	51.65
475.749	51.59
476.096	51.3
476.442	51.15
476.788	51.12
477.134	50.98
477.48	50.78
477.826	50.73
478.172	50.65
478.518	50.51
478.864	50.4
479.21	50.33
479.556	50.24
479.902	50.2
480.248	50.15
480.593	50.09
480.939	49.81
481.285	49.64
481.63	49.55
481.976	49.39
482.321	49.15
482.667	49.13
483.012	49
483.357	48.87
483.703	48.71
484.048	48.6
484.393	48.47
484.738	48.55
485.084	48.4
485.429	48.2
485.774	48.08
486.119	47.99
486.464	47.88
486.808	47.77
487.153	47.73
487.498	47.64
487.843	47.44
488.188	47.35
488.532	47.1
488.877	46.85
489.222	46.74
489.566	46.55
489.911	46.53
490.255	46.43
490.6	46.29
490.944	46.22
491.288	45.93
491.633	45.87
491.977	45.84
492.321	45.75
492.665	45.68
493.009	45.49
493.353	45.27
493.697	45.21
494.041	45.05
494.385	45.05
494.729	44.97
495.073	44.83
495.417	44.66
495.76	44.49
496.104	44.34
496.448	44.29
496.791	44.16
497.135	44.08
497.479	43.93
497.822	43.79
498.165	43.72
498.509	43.58
498.852	43.42
499.196	43.35
499.539	43.23
499.882	43.18
500.225	43.01
500.568	42.86
500.911	42.73
501.254	42.56
501.597	42.48
501.94	42.3
502.283	42.17
502.626	42.17
502.969	41.98
503.312	41.87
503.654	41.73
503.997	41.62
504.34	41.48
504.682	41.4
505.025	41.11
505.367	40.95
505.71	40.85
506.052	40.84
506.395	40.8
506.737	40.66
507.079	40.55
507.421	40.4
507.764	40.32
508.106	40.16
508.448	40.01
508.79	39.96
509.132	39.82
509.474	39.62
509.816	39.56
510.158	39.43
510.499	39.43
510.841	39.33
511.183	39.22
511.525	39.12
511.866	38.94
512.208	38.87
512.549	38.69
512.891	38.51
513.232	38.39
513.574	38.43
513.915	38.4
514.256	38.19
514.598	38.01
514.939	37.89
515.28	37.83
515.621	37.68
515.962	37.66
516.303	37.53
516.644	37.46
516.985	37.38
517.326	37.17
517.667	37.12
518.008	37.12
518.349	36.99
518.69	36.87
519.03	36.66
519.371	36.5
519.712	36.49
520.052	36.3
520.393	36.18
520.733	36.11
521.074	36.19
521.414	36.15
521.754	36.06
522.095	36.03
522.435	35.83
522.775	35.82
523.115	35.69
523.455	35.51
523.795	35.42
524.135	35.31
524.475	35.11
524.815	34.96
525.155	34.84
525.495	34.69
525.835	34.59
526.175	34.38
526.514	34.12
526.854	33.94
527.194	33.81
527.533	33.82
527.873	33.74
528.212	33.54
528.552	33.51
528.891	33.52
529.23	33.4
529.57	33.2
529.909	33.16
530.248	33
530.587	32.88
530.927	32.86
531.266	32.69
531.605	32.62
531.944	32.52
532.283	32.37
532.621	32.35
532.96	32.36
533.299	32.3
533.638	32.26
533.977	32.24
534.315	32.15
534.654	32.13
534.992	32.14
535.331	32.12
535.67	32.05
536.008	31.89
536.346	31.83
536.685	31.64
537.023	31.51
537.361	31.28
537.7	31.13
538.038	31.17
538.376	31.03
538.714	31.09
539.052	30.99
539.39	30.88
539.728	30.88
540.066	30.85
540.404	30.79
540.741	30.77
541.079	30.7
541.417	30.56
541.755	30.47
542.092	30.32
542.43	30.33
542.767	30.33
543.105	30.26
543.442	30.27
543.78	30.2
544.117	30.24
544.454	30.18
544.792	30.08
545.129	30.14
545.466	30.21
545.803	30.32
546.14	30.32
546.477	30.22
546.814	30.32
547.151	30.21
547.488	30.09
547.825	29.93
548.162	29.89
548.499	29.89
548.835	29.9
549.172	29.85
549.509	29.84
549.845	29.76
550.182	29.77
550.518	29.81
550.855	29.75
551.191	29.77
551.528	29.74
551.864	29.74
552.2	29.84
552.537	29.83
552.873	29.83
553.209	29.94
553.545	29.86
553.881	29.71
554.217	29.62
554.553	29.74
554.889	29.7
555.225	29.74
555.561	29.62
555.896	29.62
556.232	29.72
556.568	29.78
556.903	29.79
557.239	29.56
557.575	29.58
557.91	29.54
558.245	29.65
558.581	29.59
558.916	29.54
559.252	29.61
559.587	29.57
559.922	29.58
560.257	29.63
560.592	29.55
560.928	29.53
561.263	29.64
561.598	29.4
561.933	29.45
562.267	29.74
562.602	29.73
562.937	29.77
563.272	29.79
563.607	29.59
563.941	29.89
564.276	30
564.611	30.04
564.945	30.06
565.28	30.05
565.614	30.23
565.949	30.42
566.283	30.4
566.617	30.52
566.951	30.42
567.286	30.47
567.62	30.42
567.954	30.41
568.288	30.54
568.622	30.49
568.956	30.4
569.29	30.36
569.624	30.28
569.958	30.52
570.292	30.46
570.626	30.38
570.959	30.56
571.293	30.55
571.627	30.59
571.96	30.75
572.294	30.63
572.627	30.58
572.961	30.63
573.294	30.56
573.627	30.62
573.961	30.72
574.294	30.64
574.627	30.75
574.961	30.72
575.294	30.85
575.627	30.79
575.96	30.85
576.293	30.88
576.626	30.81
576.959	30.87
577.292	30.95
577.624	30.99
577.957	31.08
578.29	31.1
578.623	31.24
578.955	31.32
579.288	31.27
579.62	31.26
579.953	31.31
580.285	31.3
580.618	31.43
580.95	31.5
581.282	31.6
581.615	31.69
581.947	31.69
582.279	31.67
582.611	31.74
582.943	31.69
583.275	31.78
583.607	31.9
583.939	32.01
584.271	32.08
584.603	32.24
584.935	32.37
585.267	32.35
585.598	32.42
585.93	32.53
586.262	32.55
586.593	32.51
586.925	32.6
587.256	32.64
587.588	32.64
587.919	32.79
588.25	32.79
588.582	32.79
588.913	32.86
589.244	33
589.575	33.08
589.907	33.25
590.238	33.43
590.569	33.57
590.9	33.62
591.231	33.73
591.562	33.72
591.892	33.86
592.223	34.1
592.554	34.29
592.885	34.47
593.215	34.51
593.546	34.63
593.877	34.79
594.207	34.81
594.538	34.89
594.868	35.08
595.198	35.15
595.529	35.23
595.859	35.46
596.189	35.59
596.52	35.81
596.85	35.86
597.18	35.89
597.51	35.88
597.84	35.93
598.17	36.05
598.5	36.12
598.83	36.32
599.16	36.63
599.489	36.82
599.819	37
600.149	37.08
600.479	37.2
600.808	37.33
601.138	37.3
601.467	37.44
601.797	37.68
602.126	37.94
602.456	38.37
602.785	38.66
603.114	38.87
603.443	39.08
603.773	39.34
604.102	39.44
604.431	39.63
604.76	39.74
605.089	40.1
605.418	40.3
605.747	40.59
606.076	40.79
606.405	40.97
606.733	41.18
607.062	41.38
607.391	41.56
607.72	41.86
608.048	42.11
608.377	42.4
608.705	42.75
609.034	42.91
609.362	43.07
609.69	43.36
610.019	43.57
610.347	43.66
610.675	43.78
611.004	43.95
611.332	43.96
611.66	44.19
611.988	44.29
612.316	44.52
612.644	44.65
612.972	44.92
613.3	44.99
613.627	45.27
613.955	45.45
614.283	45.77
614.611	45.91
614.938	46
615.266	46.03
615.593	46.11
615.921	46.17
616.248	46.37
616.576	46.36
616.903	46.27
617.23	46.55
617.558	47.14
617.885	47.57
618.212	47.9
618.539	48.11
618.866	48.33
619.193	48.59
619.52	49
619.847	49.1
620.174	49.49
620.501	49.73
620.828	49.59
621.155	49.56
621.481	49.81
621.808	49.91
622.135	50.32
622.461	50.37
622.788	50.65
623.114	51.09
623.441	51.26
623.767	51.44
624.093	51.7
624.42	51.84
624.746	52.47
625.072	53
625.398	53.2
625.725	53.15
626.051	53.24
626.377	53.43
626.703	53.89
627.029	53.75
627.354	54.07
627.68	54.29
628.006	54.48
628.332	54.49
628.658	54.56
628.983	54.98
629.309	55.44
629.634	55.78
629.96	55.97
630.285	55.92
630.611	55.43
630.936	55.24
631.262	54.93
631.587	54.91
631.912	54.82
632.237	54.64
632.562	55.09
632.887	55.1
633.213	55.33
633.538	55.7
633.863	55.79
634.187	56.06
634.512	56.28
634.837	56.25
635.162	56.62
635.487	56.39
635.811	56.5
636.136	56.87
636.461	57.26
636.785	57.36
637.11	58.3
637.434	58.95
637.758	59.32
638.083	59.58
638.407	60
638.731	60.79
639.056	61.49
639.38	61.14
639.704	61.67
640.028	62.74
640.352	63.42
640.676	63.42
641	63.46
641.324	63.29
641.648	62.63
641.972	62.6
642.295	62.95
642.619	62.67
642.943	62.39
643.266	61.99
643.59	61.81
643.913	62.06
644.237	61.83
644.56	61.26
644.884	60.97
645.207	60.52
645.53	60.01
645.854	60.17
646.177	59.97
646.5	59.89
646.823	60.12
647.146	60.41
647.469	61.4
647.792	61.47
648.115	60.59
648.438	61.13
648.761	63.89
649.084	64.53
649.406	64.47
649.729	63.74
650.052	63.38
650.374	63.29
650.697	63.66
651.019	63.88
651.342	64.21
651.664	64.3
651.987	64.28
652.309	64.14
652.631	64.35
652.953	64.53
653.276	64.47
653.598	64.47
653.92	64.45
654.242	64.57
654.564	64.53
654.886	64.4
655.208	64.25
655.53	64.16
655.851	63.89
656.173	64.12
656.495	63.93
656.816	62.82
657.138	61.95
657.46	61.71
657.781	62.76
658.103	64
658.424	63.71
658.746	62.89
659.067	61.76
659.388	61.47
659.709	61.78
660.031	61.74
660.352	62.09
660.673	61.65
660.994	61.32
661.315	61.58
661.636	61.75
661.957	61.65
662.278	61.29
662.599	61.69
662.919	61.54
663.24	62.04
663.561	61.84
663.881	62.34
664.202	61.79
664.523	62.1
664.843	61.7
665.164	62.35
665.484	62.15
665.804	62.1
666.125	62.02
666.445	62.8
666.765	63.19
667.085	63.69
667.405	63.37
667.726	63.6
668.046	63.27
668.366	63.49
668.686	63.62
669.005	63.57
669.325	63.02
669.645	62.88
669.965	62.33
670.285	62.5
670.604	62.14
670.924	62.56
671.243	62.48
671.563	62.62
671.882	62.97
672.202	63.56
672.521	63.37
672.841	62.94
673.16	62.85
673.479	62.49
673.798	62.73
674.117	62.95
674.437	62.83
674.756	62.8
675.075	63.7
675.394	63.9
675.713	63.87
676.031	64.13
676.35	64.54
676.669	64.48
676.988	64.73
677.306	64.98
677.625	65.11
677.944	65.74
678.262	66.23
678.581	66.23
678.899	66.7
679.218	65.59
679.536	66.43
679.854	65.76
680.172	65.65
680.491	65.22
680.809	65.73
681.127	66.2
681.445	66.29
681.763	66.06
682.081	65.77
682.399	65.26
682.717	64.74
683.035	64.28
683.352	63.92
683.67	63.58
683.988	63.96
684.306	64.31
684.623	64.34
684.941	64.53
685.258	64.41
685.576	64.57
685.893	64.09
686.211	63.4
686.528	63.74
686.845	63.36
687.162	63.97
687.48	63.22
687.797	63.46
688.114	63.18
688.431	63.49
688.748	63.97
689.065	63.98
689.382	64.07
689.699	65.28
690.015	65.67
690.332	66.5
690.649	66.48
690.966	65.44
691.282	65.03
691.599	65.16
691.915	64.31
692.232	64.15
692.548	64.12
692.865	63.9
693.181	64.37
693.497	64.33
693.813	65.19
694.13	65.51
694.446	65.63
694.762	66.36
695.078	66.7
695.394	66.78
695.71	67.51
696.026	66.7
696.342	66.17
696.658	66.16
696.973	65.32
697.289	64.94
697.605	63.86
697.92	63.98
698.236	63.74
698.551	63.57
698.867	64.74
699.182	66.25
699.498	66.28
699.813	67.49
700.128	67.74
700.444	67.59
700.759	67.32
701.074	65.8
701.389	65.64
701.704	65.07
702.019	65.16
702.334	65.55
702.649	65.2
702.964	64.63
703.279	64.22
703.594	63.47
703.908	63.71
704.223	64.23
704.538	64.49
704.852	65.38
705.167	65.63
705.481	66.39
705.796	66.01
706.11	65.7
706.425	66.74
706.739	66.6
707.053	65.92
707.368	66.06
707.682	65.41
707.996	64.87
708.31	65.58
708.624	65.57
708.938	67.39
709.252	66.95
709.566	66.73
709.88	65.99
710.193	65.38
710.507	65.19
710.821	65.68
711.135	66.17
711.448	67.02
711.762	69.2
712.075	70.93
712.389	70.43
712.702	70.11
713.015	70.12
713.329	69.55
713.642	70.32
713.955	69.32
714.269	68.27
714.582	67.98
714.895	67.47
715.208	68.2
715.521	68.93
715.834	68.98
716.147	69.44
716.459	70.08
716.772	68.84
717.085	70.2
717.398	70.43
717.71	69.83
718.023	69.15
718.336	68.04
718.648	68.56
718.961	68.76
719.273	67.55
719.585	66.33
719.898	65.56
720.21	64.95
720.522	65.41
720.834	65.24
721.147	65.64
721.459	64.51
721.771	66.43
722.083	66.05
722.395	65.96
722.707	65.81
723.019	64.93
723.33	64.56
723.642	64.27
723.954	62.56
724.265	62.13
724.577	62.2
724.889	60.41
725.2	59.05
725.512	60.74
725.823	61.77
726.135	61.78
726.446	60.9
726.757	60.27
727.068	61.53
727.38	61.95
727.691	62.18
728.002	62.75
728.313	61.68
728.624	61.65
728.935	61.36
729.246	61.03
729.557	61.39
729.867	61.12
730.178	61.38
730.489	61.39
730.8	61.3
731.11	61.21
731.421	62.15
731.731	62.73
732.042	62.96
732.352	62.77
732.663	63.63
732.973	65.19
733.283	65.15
733.594	64.42
733.904	66.18
734.214	66.54
734.524	67.22
734.834	66.75
735.144	65.49
735.454	65.5
735.764	64.96
736.074	65.55
736.384	65.36
736.694	65.51
737.003	67.22
737.313	66.4
737.623	65.81
737.932	66.06
738.242	66.97
738.551	66.9
738.861	67.16
739.17	64.78
739.479	64.79
739.789	64.07
740.098	64.87
740.407	64.3
740.716	63.18
741.025	62.02
741.334	61.02
741.643	59.06
741.952	59.32
742.261	59.37
742.57	58.98
742.879	59.18
743.188	56.97
743.497	56.86
743.805	54.75
744.114	55.48
744.422	55.99
744.731	53.18
745.04	53.88
745.348	56.98
745.656	56.79
745.965	55.79
746.273	55.14
746.581	54.06
746.889	55.29
747.198	54.82
747.506	56.26
747.814	54.55
748.122	55.54
748.43	55.37
748.738	56.48
749.046	57.87
749.353	56.53
749.661	57.62
749.969	58.82
750.277	60
750.584	58.7
750.892	60.14
751.199	61.8
751.507	64.03
751.814	63.57
752.122	62.17
752.429	62.8
752.736	61.45
753.044	61.09
753.351	62.01
753.658	62.59
753.965	62.91
754.272	62.96
754.579	64.6
754.886	65.4
755.193	64.94
755.5	66.62
755.807	65.74
756.114	67.72
756.42	67.46
756.727	67.16
757.034	67.64
757.34	67.55
757.647	66.49
757.953	65.31
758.26	66.57
758.566	66.31
758.872	65.18
759.179	65.8
759.485	66.18
759.791	64.42
760.097	62.02
760.403	61.84
760.709	61.91
761.015	59.6
761.321	59.27
761.627	58.69
761.933	58.76
762.239	56.97
762.545	52.92
762.851	52.64
763.156	51.2
763.462	51.78
763.767	52.08
764.073	49.72
764.378	51.4
764.684	51.96
764.989	49.26
765.295	47.01
765.6	45.29
765.905	46.13
766.21	47.78
766.515	46.63
766.821	45.28
767.126	44.28
767.431	49.05
767.736	54.31
768.041	52.76
768.345	52.56
768.65	55.58
768.955	55.66
769.26	56.75
769.564	56.68
769.869	56.8
770.174	61.12
770.478	63
770.783	63.76
771.087	66.04
771.391	60.88
771.696	65.9
772	68.07
772.304	73.05
772.608	77.49
772.913	82.46
773.217	84.18
773.521	83.53
773.825	76.55
774.129	76.39
774.433	69.56
774.736	66.4
775.04	67.41
775.344	64.58
775.648	67.88
775.951	64.51
776.255	64.02
776.559	59.84
776.862	59.37
777.166	64.96
777.469	64.51
777.772	62.96
778.076	62.14
778.379	62.18
778.682	58.43
778.985	58.05
779.289	53.24
779.592	49.83
779.895	47.24
780.198	48.6
780.501	46.22
780.804	47.49
781.106	49.66
781.409	52.68
781.712	51.87
782.015	59.29
782.317	59.43
782.62	57.27
782.923	58.11
783.225	60.98
783.527	65.55
783.83	60.26
784.132	69.83
784.435	69.68
784.737	64.75
785.039	64.36
785.341	65.89
785.643	60.34
785.945	59.01
786.248	60.92
786.55	64.58
786.851	68.3
787.153	61.13
787.455	58.47
787.757	59
788.059	54.35
788.36	53.04
788.662	61.48
788.964	60.6
789.265	67.86
789.567	69.5
789.868	70.41
790.17	70.5
790.471	76.93
790.772	72.64
791.074	74.25
791.375	78.32
791.676	75.29
791.977	76.97
792.278	78.07
792.579	73.81
792.88	72.97
793.181	77.33
793.482	83.06
793.783	80.44
794.083	71.37
794.384	76.96
794.685	81.48
794.986	75.56
795.286	68.82
795.587	67.39
795.887	64.5
796.188	51.41
796.488	53.71
796.788	51.22
797.089	41.11
797.389	44.53
797.689	41.04
797.989	28.81
798.289	28.85
798.589	15.94
798.889	10.04
799.189	9.55
799.489	4.18
799.789	-8.96
800.089	-3.67
800.389	17.91
800.688	16.6
800.988	17.64
801.288	19.97
801.587	25.27
801.887	9.66
802.186	1.25
802.486	-0.57
802.785	-4.96
803.085	12.26
803.384	13.58
803.683	14.09
803.982	7.6
804.281	-11.76
804.58	3.45
804.879	-3.5
805.178	0.95
805.477	13.06
805.776	14
806.075	21.57
806.374	18.98
806.673	12.57
806.971	8.96
807.27	21.85
807.569	26.58
807.867	-7.85
808.166	-7.49
808.464	5.17
808.763	-11.51
809.061	-8.6
809.359	-9.43
809.658	5.72
809.956	28.15
810.254	66.78
810.552	32.17
810.85	42.19
811.148	43.82
811.446	39.28
811.744	63.93
812.042	80.35
812.34	86.58
812.638	97.71
812.935	114.25
813.233	114.65
813.531	97.32
813.828	102.7
814.126	121.77
814.423	143.45
814.721	161.03
815.018	175.02
815.316	173.36
815.613	164.08
815.91	128.81
816.207	117.96
816.504	96.88
816.802	139.82
817.099	103.21
817.396	55.18
817.693	18.74
817.99	18.65
818.286	-3.1
818.583	-0.08
818.88	9.81
819.177	9.01
819.473	10.19
819.77	-16.9
820.067	-20.74
820.363	-34.1
820.66	-44.79
820.956	-40.52
821.252	-61.59
821.549	-66.71
821.845	-52.05
822.141	-45.87
822.437	-31.1
822.734	-18.46
823.03	-25.25
823.326	-18.94
823.622	-4.81
823.918	-3.24
824.213	-9.07
824.509	-4.07
824.805	10.7
825.101	19.95
825.397	27.7
825.692	25.8
825.988	23.7
826.283	32.25
826.579	26.13
826.874	37.07
827.17	42.53
827.465	59.85
827.76	75.58
828.056	71.11
828.351	72.86
828.646	61.67
828.941	74.53
829.236	77.01
829.531	68.89
829.826	62.05
830.121	67.39
830.416	79.94
830.711	72.73
831.006	64.13
831.3	62.35
831.595	57.72
831.89	58.57
832.184	61.1
832.479	59.19
832.773	61.34
833.068	51.01
833.362	68.35
833.656	61.19
833.951	59.67
834.245	58.41
834.539	57.04
834.833	41.52
835.127	45.56
835.421	43.88
835.715	43.88
836.009	59.8
836.303	43.81
836.597	34.52
836.891	37.46
837.185	38.98
837.478	26.1
837.772	15.85
838.066	21.03
838.359	24.36
838.653	17.66
838.946	19.9
839.24	9.71
839.533	-1.45
839.826	9.11
840.119	9.06
840.413	20.6
840.706	-3.92
840.999	-12.5
841.292	-27.71
841.585	-29.77
841.878	-15.15
842.171	-22.5
842.464	-33.48
842.757	-31.52
843.049	-37.44
843.342	-47.42
843.635	-32.38
843.927	-16.89
844.22	-27.2
844.513	-57.05
844.805	-56.92
845.098	-57.91
845.39	-68.34
845.682	-53.64
845.975	-51.1
846.267	-61.94
846.559	-62.95
846.851	-50.04
847.143	-54.02
847.435	-52.28
847.727	-49.42
848.019	-26.04
848.311	-1.16
848.603	6.81
848.895	12.16
849.186	17.9
849.478	30.21
849.77	39.13
850.061	27.64
850.353	33.98
850.645	33.38
850.936	38.79
851.227	24.32
851.519	16.22
851.81	12.64
852.101	24.96
852.393	34.79
852.684	28.73
852.975	34.4
853.266	36.65
853.557	43.34
853.848	46.83
854.139	41.73
854.43	38.6
854.72	29.61
855.011	26.63
855.302	29.69
855.593	7.58
855.883	-18.61
856.174	-25.78
856.464	-33.09
856.755	-72.32
857.045	-91.93
857.336	-50.56
857.626	-115.12
857.916	-52.6
858.206	-93.37
858.497	-72.35
858.787	-54.09
859.077	-52.01
859.367	-53.89
859.657	-66.55
859.947	-57.3
860.237	-111.19
860.527	-136.8
860.816	-166.45
861.106	-133.15
861.396	-200
861.685	-154.5
861.975	-123.49
862.265	-118.9
862.554	-124.78
862.844	-200.76
863.133	-203.94
863.422	-141.05
863.712	-92.3
864.001	-48.65
864.29	-43.18
864.579	-78.29
864.868	-63.82
865.157	-81.36
865.446	-61.47
865.735	-70.13
866.024	-87.8
866.313	-64.33
866.602	-86.32
866.891	-107.51
867.179	-129.85
867.468	-34.02
