Data from T1_Reflection__160__15-33-58-820.txt Node

Date: Thu Jun 03 15:33:58 CEST 2021
User: mabdelazizm
Spectrometer: FLMS18565
Trigger mode: 0
Integration Time (sec): 2.000000E0
Scans to average: 1
Electric dark correction enabled: true
Nonlinearity correction enabled: false
Boxcar width: 12
XAxis mode: Wavelengths
Number of Pixels in Spectrum: 2048
>>>>>Begin Spectral Data<<<<<
179.071	-58.15
179.452	6.11
179.833	3.03
180.214	15.61
180.595	3.84
180.977	9.84
181.358	5.95
181.739	9.67
182.12	-1.26
182.501	-37.92
182.882	-43.26
183.262	-46.73
183.643	-24.53
184.024	-7.42
184.405	10.27
184.786	10.45
185.166	11.36
185.547	8.75
185.927	7.18
186.308	12.41
186.689	22.25
187.069	26.64
187.449	31.41
187.83	18.92
188.21	20.17
188.59	21.06
188.971	14.67
189.351	14.13
189.731	14.53
190.111	16.6
190.491	13.31
190.871	16.76
191.251	17.66
191.631	16.67
192.011	18.19
192.391	21.23
192.771	24.98
193.151	23.2
193.531	22.3
193.91	20.33
194.29	18.87
194.67	18.65
195.049	18.37
195.429	15.47
195.808	13.62
196.188	12.71
196.567	11.13
196.946	11.34
197.326	12.87
197.705	13.33
198.084	14.44
198.464	13.1
198.843	13.96
199.222	12.8
199.601	11.81
199.98	10.72
200.359	10.31
200.738	9.7
201.117	10.58
201.496	9.5
201.875	6.05
202.254	3.57
202.632	2.54
203.011	2.2
203.39	4.35
203.768	6.45
204.147	6.09
204.525	5.98
204.904	6.84
205.282	7.37
205.661	5.85
206.039	6.96
206.418	5.88
206.796	6.26
207.174	6.42
207.552	4.79
207.931	4.28
208.309	3.16
208.687	3.02
209.065	3.75
209.443	4.55
209.821	2.67
210.199	3.81
210.577	3.64
210.954	4.2
211.332	4.74
211.71	3.27
212.088	3.73
212.465	4.24
212.843	2.96
213.221	2.13
213.598	3.19
213.976	3.4
214.353	3.09
214.731	3.23
215.108	5.16
215.485	4.03
215.863	2.99
216.24	3
216.617	4.37
216.994	5.61
217.371	4.82
217.749	4.24
218.126	4.37
218.503	3.91
218.88	4.64
219.256	5.31
219.633	4.35
220.01	4.07
220.387	4.8
220.764	5.09
221.14	5.6
221.517	5.94
221.894	5.96
222.27	5.96
222.647	5.57
223.023	5
223.4	4.41
223.776	4.06
224.153	4.26
224.529	3.56
224.905	4.1
225.282	4.41
225.658	4.43
226.034	3.88
226.41	3.7
226.786	4
227.162	4.17
227.538	4.09
227.914	4.13
228.29	4.04
228.666	3.45
229.042	3.34
229.418	3.47
229.793	3.41
230.169	3.34
230.545	3.3
230.92	3.46
231.296	3.2
231.672	3.06
232.047	3.1
232.422	3.21
232.798	3.26
233.173	3.48
233.549	3.22
233.924	3.22
234.299	3.05
234.674	2.84
235.05	2.74
235.425	2.75
235.8	2.73
236.175	2.72
236.55	2.66
236.925	2.49
237.3	2.37
237.675	2.35
238.049	2.54
238.424	2.53
238.799	2.53
239.174	2.43
239.548	2.34
239.923	2.3
240.297	2.17
240.672	2.19
241.046	2.2
241.421	2.17
241.795	2.15
242.17	2.16
242.544	2.07
242.918	2.17
243.293	2.2
243.667	2.18
244.041	2.27
244.415	2.24
244.789	2.22
245.163	2.17
245.537	2.15
245.911	2.11
246.285	2.09
246.659	2.1
247.033	2.15
247.406	2.07
247.78	2.09
248.154	2.09
248.528	2.09
248.901	2.09
249.275	2.09
249.648	2.06
250.022	2.1
250.395	2.08
250.769	2.12
251.142	2.13
251.515	2.05
251.888	2.09
252.262	2.04
252.635	1.96
253.008	1.91
253.381	1.88
253.754	1.93
254.127	1.92
254.5	1.88
254.873	1.92
255.246	1.97
255.619	2.06
255.992	2.07
256.364	1.97
256.737	1.99
257.11	1.98
257.483	2
257.855	2.01
258.228	2.04
258.6	2.02
258.973	2.04
259.345	2.01
259.718	2.01
260.09	1.96
260.462	1.95
260.834	1.99
261.207	1.95
261.579	1.96
261.951	2
262.323	1.99
262.695	1.95
263.067	1.95
263.439	1.98
263.811	2
264.183	1.93
264.555	1.96
264.927	1.93
265.298	1.94
265.67	1.93
266.042	1.92
266.413	1.87
266.785	1.78
267.156	1.8
267.528	1.8
267.899	1.84
268.271	1.83
268.642	1.82
269.013	1.75
269.385	1.77
269.756	1.71
270.127	1.74
270.498	1.71
270.87	1.66
271.241	1.67
271.612	1.73
271.983	1.81
272.354	1.79
272.724	1.74
273.095	1.77
273.466	1.82
273.837	1.78
274.208	1.81
274.578	1.83
274.949	1.88
275.32	1.88
275.69	1.91
276.061	1.89
276.431	1.85
276.802	1.82
277.172	1.83
277.542	1.82
277.913	1.83
278.283	1.9
278.653	1.88
279.023	1.97
279.394	1.93
279.764	1.95
280.134	1.96
280.504	1.97
280.874	1.95
281.244	1.9
281.614	1.87
281.983	1.94
282.353	1.91
282.723	1.9
283.093	1.88
283.462	1.8
283.832	1.79
284.202	1.84
284.571	1.86
284.941	1.86
285.31	1.88
285.68	1.88
286.049	1.9
286.418	1.85
286.788	1.96
287.157	1.92
287.526	1.93
287.895	1.92
288.264	1.91
288.633	1.86
289.002	1.82
289.371	1.86
289.74	1.83
290.109	1.81
290.478	1.81
290.847	1.8
291.216	1.74
291.585	1.76
291.953	1.67
292.322	1.7
292.691	1.74
293.059	1.67
293.428	1.6
293.796	1.56
294.165	1.54
294.533	1.5
294.901	1.54
295.27	1.54
295.638	1.52
296.006	1.37
296.374	1.44
296.743	1.43
297.111	1.48
297.479	1.43
297.847	1.46
298.215	1.47
298.583	1.42
298.95	1.4
299.318	1.39
299.686	1.4
300.054	1.44
300.422	1.44
300.789	1.44
301.157	1.49
301.525	1.45
301.892	1.44
302.26	1.49
302.627	1.51
302.994	1.5
303.362	1.53
303.729	1.57
304.097	1.55
304.464	1.5
304.831	1.52
305.198	1.52
305.565	1.45
305.932	1.43
306.299	1.42
306.666	1.38
307.033	1.44
307.4	1.55
307.767	1.56
308.134	1.55
308.501	1.55
308.867	1.55
309.234	1.54
309.601	1.51
309.967	1.51
310.334	1.56
310.701	1.54
311.067	1.51
311.433	1.52
311.8	1.55
312.166	1.58
312.533	1.58
312.899	1.59
313.265	1.58
313.631	1.59
313.997	1.59
314.363	1.62
314.729	1.62
315.096	1.6
315.461	1.6
315.827	1.65
316.193	1.63
316.559	1.51
316.925	1.48
317.291	1.46
317.656	1.49
318.022	1.54
318.388	1.55
318.753	1.56
319.119	1.53
319.484	1.52
319.85	1.53
320.215	1.53
320.581	1.46
320.946	1.46
321.311	1.45
321.676	1.44
322.042	1.47
322.407	1.49
322.772	1.52
323.137	1.52
323.502	1.55
323.867	1.55
324.232	1.58
324.597	1.6
324.962	1.6
325.327	1.52
325.691	1.63
326.056	1.69
326.421	1.78
326.785	1.74
327.15	1.69
327.514	1.62
327.879	1.65
328.243	1.7
328.608	1.69
328.972	1.74
329.337	1.79
329.701	1.9
330.065	1.93
330.429	1.92
330.794	1.88
331.158	1.86
331.522	1.79
331.886	1.81
332.25	1.81
332.614	1.82
332.978	1.85
333.342	1.78
333.705	1.74
334.069	1.74
334.433	1.86
334.797	1.8
335.16	1.73
335.524	1.72
335.887	1.72
336.251	1.74
336.614	1.83
336.978	1.82
337.341	1.82
337.705	1.85
338.068	1.88
338.431	1.9
338.794	1.88
339.158	1.83
339.521	1.79
339.884	1.84
340.247	1.89
340.61	1.94
340.973	1.92
341.336	1.93
341.699	1.92
342.062	1.93
342.424	1.93
342.787	1.94
343.15	1.89
343.512	1.83
343.875	1.79
344.238	1.84
344.6	1.89
344.963	1.91
345.325	1.94
345.688	1.91
346.05	1.85
346.412	1.88
346.775	1.8
347.137	1.74
347.499	1.71
347.861	1.71
348.223	1.68
348.585	1.66
348.947	1.64
349.309	1.56
349.671	1.57
350.033	1.57
350.395	1.52
350.757	1.54
351.118	1.59
351.48	1.67
351.842	1.6
352.203	1.64
352.565	1.66
352.927	1.76
353.288	1.77
353.65	1.7
354.011	1.71
354.372	1.71
354.734	1.74
355.095	1.79
355.456	1.78
355.817	1.77
356.179	1.81
356.54	1.86
356.901	1.78
357.262	1.8
357.623	1.9
357.984	1.93
358.345	1.97
358.705	2.02
359.066	1.97
359.427	2.03
359.788	2
360.148	1.95
360.509	1.97
360.87	2
361.23	2.02
361.591	2.06
361.951	2.05
362.312	2.06
362.672	2.01
363.032	2.09
363.393	2.08
363.753	2.07
364.113	2.09
364.473	2.1
364.833	2.14
365.193	2.12
365.553	2.11
365.913	2.12
366.273	2.12
366.633	2.11
366.993	2.13
367.353	2.1
367.713	2.07
368.072	2.08
368.432	2.12
368.792	2.15
369.151	2.14
369.511	2.1
369.87	2.19
370.23	2.22
370.589	2.16
370.949	2.17
371.308	2.17
371.667	2.18
372.027	2.05
372.386	2.04
372.745	2.03
373.104	2.08
373.463	2.1
373.822	2.08
374.181	2.07
374.54	2.06
374.899	2.13
375.258	2.18
375.617	2.1
375.975	2.14
376.334	2.17
376.693	2.25
377.052	2.33
377.41	2.3
377.769	2.38
378.127	2.46
378.486	2.51
378.844	2.52
379.202	2.59
379.561	2.66
379.919	2.65
380.277	2.71
380.636	2.84
380.994	2.96
381.352	3.03
381.71	3.14
382.068	3.18
382.426	3.23
382.784	3.3
383.142	3.5
383.5	3.58
383.857	3.7
384.215	3.81
384.573	4.01
384.931	4.02
385.288	4.15
385.646	4.23
386.003	4.32
386.361	4.52
386.718	4.58
387.076	4.73
387.433	4.91
387.791	5.02
388.148	5.11
388.505	5.22
388.862	5.41
389.22	5.68
389.577	5.79
389.934	5.99
390.291	6.19
390.648	6.4
391.005	6.65
391.362	6.83
391.718	7.05
392.075	7.19
392.432	7.41
392.789	7.62
393.145	7.84
393.502	8.05
393.859	8.41
394.215	8.63
394.572	8.92
394.928	9.16
395.285	9.41
395.641	9.74
395.997	10.07
396.354	10.3
396.71	10.71
397.066	11.1
397.422	11.47
397.778	11.83
398.134	12.05
398.491	12.47
398.846	12.81
399.202	13.16
399.558	13.5
399.914	13.84
400.27	14.28
400.626	14.67
400.981	15.04
401.337	15.47
401.693	15.9
402.048	16.36
402.404	16.79
402.759	17.1
403.115	17.63
403.47	18.02
403.826	18.5
404.181	18.89
404.536	19.22
404.892	19.56
405.247	19.92
405.602	20.32
405.957	20.64
406.312	20.96
406.667	21.32
407.022	21.73
407.377	22.08
407.732	22.38
408.087	22.75
408.442	23.18
408.796	23.57
409.151	23.92
409.506	24.28
409.86	24.67
410.215	25.01
410.57	25.36
410.924	25.63
411.279	26
411.633	26.39
411.987	26.58
412.342	26.92
412.696	27.24
413.05	27.55
413.404	27.94
413.758	28.34
414.113	28.71
414.467	28.9
414.821	29.08
415.175	29.43
415.529	29.73
415.882	30
416.236	30.23
416.59	30.56
416.944	30.75
417.298	30.92
417.651	31.07
418.005	31.2
418.358	31.5
418.712	31.6
419.065	31.81
419.419	31.89
419.772	32.12
420.126	32.32
420.479	32.48
420.832	32.7
421.185	32.84
421.539	32.91
421.892	33.03
422.245	33.13
422.598	33.16
422.951	33.31
423.304	33.49
423.657	33.64
424.01	33.85
424.363	33.97
424.715	34.11
425.068	34.24
425.421	34.28
425.773	34.4
426.126	34.65
426.479	34.76
426.831	34.95
427.184	34.97
427.536	35.06
427.889	35.03
428.241	35.2
428.593	35.28
428.945	35.35
429.298	35.46
429.65	35.57
430.002	35.59
430.354	35.83
430.706	35.85
431.058	35.91
431.41	36.07
431.762	36.16
432.114	36.25
432.466	36.39
432.817	36.39
433.169	36.52
433.521	36.6
433.872	36.62
434.224	36.72
434.576	36.75
434.927	36.68
435.279	36.73
435.63	36.77
435.981	36.86
436.333	37.07
436.684	37.14
437.035	37.12
437.387	37.21
437.738	37.25
438.089	37.19
438.44	37.21
438.791	37.31
439.142	37.29
439.493	37.44
439.844	37.55
440.195	37.48
440.545	37.5
440.896	37.63
441.247	37.6
441.598	37.66
441.948	37.62
442.299	37.59
442.649	37.62
443	37.69
443.35	37.85
443.701	37.92
444.051	38
444.401	38
444.752	38.02
445.102	37.92
445.452	38.05
445.802	38.09
446.152	38.08
446.502	38.09
446.852	38.19
447.202	38.1
447.552	38.11
447.902	38.24
448.252	38.23
448.602	38.82
448.952	38.91
449.301	38.83
449.651	38.9
450.001	39.03
450.35	39.03
450.7	38.96
451.049	38.99
451.399	39.12
451.748	39.17
452.097	39.12
452.447	39.14
452.796	39.09
453.145	39.18
453.494	39.1
453.843	39.19
454.193	39.08
454.542	39.2
454.891	39.21
455.239	39.18
455.588	39.22
455.937	39.33
456.286	39.36
456.635	39.18
456.984	39.14
457.332	38.4
457.681	38.38
458.03	38.34
458.378	38.16
458.727	38.14
459.075	38.09
459.423	38.26
459.772	38.31
460.12	38.25
460.468	38.1
460.817	38.07
461.165	37.96
461.513	37.89
461.861	37.89
462.209	37.91
462.557	37.86
462.905	37.88
463.253	37.67
463.601	37.71
463.949	37.64
464.297	37.56
464.644	37.5
464.992	37.41
465.34	37.27
465.687	37.28
466.035	37.26
466.383	37.24
466.73	37.18
467.078	37.15
467.425	37.09
467.772	37.15
468.12	36.96
468.467	36.81
468.814	36.74
469.161	36.71
469.508	36.61
469.856	36.45
470.203	36.41
470.55	36.27
470.897	36.2
471.243	36.17
471.59	36.12
471.937	36.03
472.284	35.81
472.631	35.67
472.977	35.63
473.324	35.57
473.671	35.51
474.017	35.46
474.364	35.39
474.71	35.2
475.057	35.08
475.403	34.99
475.749	34.9
476.096	34.64
476.442	34.38
476.788	34.28
477.134	34.16
477.48	34.01
477.826	33.91
478.172	33.83
478.518	33.77
478.864	33.66
479.21	33.49
479.556	33.38
479.902	33.21
480.248	33.17
480.593	33.09
480.939	33
481.285	32.94
481.63	32.8
481.976	32.6
482.321	32.45
482.667	32.42
483.012	32.21
483.357	32.15
483.703	32.01
484.048	31.94
484.393	31.85
484.738	31.95
485.084	31.92
485.429	31.83
485.774	31.75
486.119	31.72
486.464	31.62
486.808	31.47
487.153	31.36
487.498	31.28
487.843	31.23
488.188	31.11
488.532	30.9
488.877	30.68
489.222	30.63
489.566	30.48
489.911	30.28
490.255	30.21
490.6	30.11
490.944	30.02
491.288	29.84
491.633	29.82
491.977	29.76
492.321	29.71
492.665	29.57
493.009	29.37
493.353	29.2
493.697	29.03
494.041	28.88
494.385	28.87
494.729	28.71
495.073	28.6
495.417	28.53
495.76	28.43
496.104	28.28
496.448	28.16
496.791	28.09
497.135	28.05
497.479	27.89
497.822	27.78
498.165	27.7
498.509	27.66
498.852	27.48
499.196	27.45
499.539	27.31
499.882	27.25
500.225	27.19
500.568	27.08
500.911	26.93
501.254	26.88
501.597	26.87
501.94	26.75
502.283	26.7
502.626	26.67
502.969	26.47
503.312	26.42
503.654	26.36
503.997	26.32
504.34	26.21
504.682	26.06
505.025	25.92
505.367	25.8
505.71	25.7
506.052	25.73
506.395	25.65
506.737	25.6
507.079	25.55
507.421	25.4
507.764	25.33
508.106	25.19
508.448	25.08
508.79	24.95
509.132	24.83
509.474	24.78
509.816	24.67
510.158	24.45
510.499	24.32
510.841	24.25
511.183	24.17
511.525	24.09
511.866	24.03
512.208	23.87
512.549	23.8
512.891	23.66
513.232	23.69
513.574	23.6
513.915	23.54
514.256	23.49
514.598	23.36
514.939	23.31
515.28	23.17
515.621	23.02
515.962	23.04
516.303	22.97
516.644	22.94
516.985	22.85
517.326	22.67
517.667	22.62
518.008	22.51
518.349	22.42
518.69	22.42
519.03	22.31
519.371	22.15
519.712	22.06
520.052	21.91
520.393	21.71
520.733	21.67
521.074	21.5
521.414	21.55
521.754	21.49
522.095	21.47
522.435	21.46
522.775	21.46
523.115	21.32
523.455	21.14
523.795	21.17
524.135	21.15
524.475	21.03
524.815	20.93
525.155	20.91
525.495	20.81
525.835	20.87
526.175	20.81
526.514	20.81
526.854	20.78
527.194	20.75
527.533	20.78
527.873	20.68
528.212	20.68
528.552	20.75
528.891	20.78
529.23	20.74
529.57	20.77
529.909	20.66
530.248	20.46
530.587	20.43
530.927	20.34
531.266	20.19
531.605	20.19
531.944	20.09
532.283	19.92
532.621	19.78
532.96	19.8
533.299	19.68
533.638	19.7
533.977	19.64
534.315	19.56
534.654	19.43
534.992	19.31
535.331	19.27
535.67	19.11
536.008	19.02
536.346	19.11
536.685	18.95
537.023	18.84
537.361	18.66
537.7	18.61
538.038	18.61
538.376	18.55
538.714	18.65
539.052	18.65
539.39	18.48
539.728	18.41
540.066	18.33
540.404	18.29
540.741	18.19
541.079	18.21
541.417	18.12
541.755	18.05
542.092	17.85
542.43	17.9
542.767	17.83
543.105	17.74
543.442	17.74
543.78	17.61
544.117	17.77
544.454	17.84
544.792	17.85
545.129	17.8
545.466	17.92
545.803	18.02
546.14	18
546.477	17.89
546.814	17.89
547.151	17.84
547.488	17.71
547.825	17.67
548.162	17.74
548.499	17.76
548.835	17.71
549.172	17.71
549.509	17.71
549.845	17.59
550.182	17.64
550.518	17.62
550.855	17.63
551.191	17.66
551.528	17.67
551.864	17.54
552.2	17.68
552.537	17.62
552.873	17.6
553.209	17.44
553.545	17.45
553.881	17.22
554.217	17.14
554.553	17.08
554.889	17.15
555.225	17.22
555.561	17.13
555.896	17.14
556.232	17.27
556.568	17.25
556.903	17.22
557.239	17.2
557.575	17.32
557.91	17.28
558.245	17.46
558.581	17.32
558.916	17.45
559.252	17.49
559.587	17.49
559.922	17.6
560.257	17.7
560.592	17.71
560.928	17.72
561.263	17.87
561.598	17.81
561.933	17.87
562.267	18.19
562.602	18.26
562.937	18.34
563.272	18.34
563.607	18.29
563.941	18.43
564.276	18.5
564.611	18.42
564.945	18.45
565.28	18.47
565.614	18.53
565.949	18.55
566.283	18.59
566.617	18.67
566.951	18.84
567.286	18.76
567.62	18.77
567.954	18.7
568.288	18.76
568.622	18.78
568.956	18.67
569.29	18.64
569.624	18.47
569.958	18.57
570.292	18.57
570.626	18.46
570.959	18.43
571.293	18.53
571.627	18.6
571.96	18.74
572.294	18.65
572.627	18.61
572.961	18.66
573.294	18.63
573.627	18.72
573.961	18.78
574.294	18.82
574.627	18.91
574.961	18.9
575.294	18.92
575.627	18.97
575.96	18.94
576.293	18.98
576.626	19
576.959	19.02
577.292	19.11
577.624	19.13
577.957	19.23
578.29	19.34
578.623	19.47
578.955	19.54
579.288	19.58
579.62	19.57
579.953	19.48
580.285	19.42
580.618	19.58
580.95	19.59
581.282	19.6
581.615	19.71
581.947	19.66
582.279	19.73
582.611	19.71
582.943	19.72
583.275	19.67
583.607	19.79
583.939	19.78
584.271	19.82
584.603	19.87
584.935	19.9
585.267	19.83
585.598	19.89
585.93	19.96
586.262	19.95
586.593	19.94
586.925	19.91
587.256	19.91
587.588	19.98
587.919	20.05
588.25	20.2
588.582	20.34
588.913	20.25
589.244	20.42
589.575	20.55
589.907	20.58
590.238	20.73
590.569	20.87
590.9	20.99
591.231	21.03
591.562	21.14
591.892	21.11
592.223	21.37
592.554	21.55
592.885	21.76
593.215	21.87
593.546	22.01
593.877	22.05
594.207	22.06
594.538	22.17
594.868	22.22
595.198	22.31
595.529	22.43
595.859	22.55
596.189	22.54
596.52	22.62
596.85	22.58
597.18	22.76
597.51	22.86
597.84	22.92
598.17	23.04
598.5	23.1
598.83	23.12
599.16	23.36
599.489	23.48
599.819	23.62
600.149	23.72
600.479	23.75
600.808	23.9
601.138	23.92
601.467	24.08
601.797	24.26
602.126	24.39
602.456	24.74
602.785	24.87
603.114	25.06
603.443	25.28
603.773	25.54
604.102	25.81
604.431	26.04
604.76	26.23
605.089	26.57
605.418	26.65
605.747	26.68
606.076	26.88
606.405	26.93
606.733	27.15
607.062	27.42
607.391	27.56
607.72	27.74
608.048	28.09
608.377	28.44
608.705	28.71
609.034	28.87
609.362	29.15
609.69	29.3
610.019	29.53
610.347	29.82
610.675	29.9
611.004	30.12
611.332	30.27
611.66	30.47
611.988	30.46
612.316	30.47
612.644	30.58
612.972	30.62
613.3	30.57
613.627	31.02
613.955	31.29
614.283	31.61
614.611	31.94
614.938	31.99
615.266	32.07
615.593	32.06
615.921	32.37
616.248	32.48
616.576	32.59
616.903	32.64
617.23	32.91
617.558	33.41
617.885	33.67
618.212	33.96
618.539	34.19
618.866	34.31
619.193	34.48
619.52	34.8
619.847	35
620.174	35.08
620.501	35.38
620.828	35.59
621.155	35.67
621.481	35.8
621.808	35.87
622.135	36.16
622.461	36.04
622.788	36.3
623.114	36.83
623.441	37.02
623.767	37.33
624.093	37.34
624.42	37.51
624.746	37.98
625.072	38.37
625.398	38.62
625.725	38.16
626.051	38.19
626.377	38.55
626.703	38.57
627.029	38.89
627.354	39
627.68	39.2
628.006	38.97
628.332	39.44
628.658	39.41
628.983	39.26
629.309	39.53
629.634	39.8
629.96	39.63
630.285	39.56
630.611	39.3
630.936	38.99
631.262	38.69
631.587	38.84
631.912	38.77
632.237	38.88
632.562	38.92
632.887	38.8
633.213	39.2
633.538	39.38
633.863	40.27
634.187	40.54
634.512	40.22
634.837	40.54
635.162	40.51
635.487	40.82
635.811	40.67
636.136	41.3
636.461	41.55
636.785	41.9
637.11	42.84
637.434	43.31
637.758	43.84
638.083	44.4
638.407	44.78
638.731	45.76
639.056	46.14
639.38	46.08
639.704	46.01
640.028	47.08
640.352	47.28
640.676	47.64
641	47.62
641.324	47.44
641.648	47.31
641.972	46.79
642.295	47.24
642.619	47.97
642.943	47.77
643.266	47.57
643.59	47.53
643.913	47.54
644.237	47.68
644.56	47.18
644.884	46.98
645.207	46.45
645.53	46.55
645.854	46.36
646.177	46.09
646.5	46.17
646.823	45.95
647.146	46.31
647.469	46.71
647.792	46.96
648.115	45.85
648.438	46.38
648.761	48.55
649.084	49.88
649.406	50.19
649.729	49.47
650.052	48.98
650.374	48.57
650.697	48.46
651.019	48.5
651.342	48.65
651.664	48.7
651.987	48.75
652.309	48.76
652.631	48.99
652.953	49.17
653.276	49.28
653.598	49.08
653.92	49.06
654.242	49.22
654.564	49.15
654.886	49.27
655.208	49.18
655.53	49.16
655.851	49.09
656.173	49.39
656.495	49.3
656.816	48.48
657.138	47.48
657.46	46.56
657.781	47.06
658.103	48.38
658.424	49.53
658.746	49.6
659.067	50.03
659.388	49.88
659.709	49.78
660.031	49.93
660.352	49.38
660.673	49.11
660.994	48.41
661.315	48.1
661.636	48.48
661.957	48.92
662.278	48.49
662.599	48.66
662.919	48.52
663.24	48.91
663.561	48.93
663.881	48.67
664.202	47.86
664.523	47.3
664.843	47.21
665.164	46.71
665.484	47.23
665.804	46.87
666.125	46.54
666.445	47.04
666.765	47.32
667.085	47.19
667.405	47.84
667.726	49.28
668.046	49.01
668.366	49.43
668.686	49.48
669.005	49.67
669.325	50.07
669.645	50.3
669.965	50.09
670.285	50.17
670.604	50.42
670.924	50.17
671.243	50.14
671.563	50.46
671.882	50.56
672.202	51.54
672.521	52.31
672.841	52.36
673.16	53.31
673.479	52.57
673.798	52.65
674.117	53
674.437	52.5
674.756	52.47
675.075	53.17
675.394	53.03
675.713	51.95
676.031	51.98
676.35	51.58
676.669	51.6
676.988	52.09
677.306	51.7
677.625	51.59
677.944	52.43
678.262	52.41
678.581	52.65
678.899	53.74
679.218	53.18
679.536	53.12
679.854	53.02
680.172	52.88
680.491	52.54
680.809	52.86
681.127	52.67
681.445	53.75
681.763	53.91
682.081	53.72
682.399	53.64
682.717	53.39
683.035	52.91
683.352	53.09
683.67	53.19
683.988	53.93
684.306	54.67
684.623	54.56
684.941	54.6
685.258	54.91
685.576	54.98
685.893	54.42
686.211	54.65
686.528	54.18
686.845	53.17
687.162	53.01
687.48	52.07
687.797	51.85
688.114	51.54
688.431	51.08
688.748	50.72
689.065	50.4
689.382	49.07
689.699	49.07
690.015	48.79
690.332	49.65
690.649	48.81
690.966	48.74
691.282	47.85
691.599	47.82
691.915	46.43
692.232	46.13
692.548	46.09
692.865	45.28
693.181	45.04
693.497	45.73
693.813	45.54
694.13	45.67
694.446	45.91
694.762	46.72
695.078	47.63
695.394	49.7
695.71	50.06
696.026	49.67
696.342	50.15
696.658	50.19
696.973	49.59
697.289	50.22
697.605	50.25
697.92	50.37
698.236	50.09
698.551	50.76
698.867	50.69
699.182	52.07
699.498	52.15
699.813	54.37
700.128	54.81
700.444	55.43
700.759	55.25
701.074	54.5
701.389	53.51
701.704	53.41
702.019	52.54
702.334	52.94
702.649	53.05
702.964	52.41
703.279	51.34
703.594	51.62
703.908	52.11
704.223	51.64
704.538	52.38
704.852	53.62
705.167	53.24
705.481	53.31
705.796	53.74
706.11	53.26
706.425	54.37
706.739	54.62
707.053	54.22
707.368	54.53
707.682	53.3
707.996	53.14
708.31	52.71
708.624	53.32
708.938	54.76
709.252	55.92
709.566	55.8
709.88	56.59
710.193	56.32
710.507	55.76
710.821	56.08
711.135	55.53
711.448	56.41
711.762	56.67
712.075	58.08
712.389	57.62
712.702	57.07
713.015	57.3
713.329	57.85
713.642	57.59
713.955	57.16
714.269	57.14
714.582	56.63
714.895	56.09
715.208	56.2
715.521	56.89
715.834	57.4
716.147	58.03
716.459	57.77
716.772	56.8
717.085	56.9
717.398	57.74
717.71	56.07
718.023	56.49
718.336	56.25
718.648	56.22
718.961	56.54
719.273	54.65
719.585	54.22
719.898	53.68
720.21	53.45
720.522	53.64
720.834	53.3
721.147	53.1
721.459	52.33
721.771	53.48
722.083	51.73
722.395	51.6
722.707	51.46
723.019	49.92
723.33	48.22
723.642	47.39
723.954	46.12
724.265	46.93
724.577	47.46
724.889	46.87
725.2	45.19
725.512	46.43
725.823	46.11
726.135	45.65
726.446	46.47
726.757	46.91
727.068	48.45
727.38	49.03
727.691	49.35
728.002	49.56
728.313	49.28
728.624	48.63
728.935	47.82
729.246	48.36
729.557	48.88
729.867	49.96
730.178	50.5
730.489	50.82
730.8	51.5
731.11	52.57
731.421	52.47
731.731	53.83
732.042	52.85
732.352	51.65
732.663	51.51
732.973	53.47
733.283	53.67
733.594	53.56
733.904	54.39
734.214	54.14
734.524	54.02
734.834	54.1
735.144	53.44
735.454	52.89
735.764	52.72
736.074	52.84
736.384	53.83
736.694	54.57
737.003	55.64
737.313	54.62
737.623	52.7
737.932	52.99
738.242	52.93
738.551	52.5
738.861	52.58
739.17	53.43
739.479	52.49
739.789	51.91
740.098	53.77
740.407	53.17
740.716	51.53
741.025	51.67
741.334	52.06
741.643	50.3
741.952	49.42
742.261	49.15
742.57	46.69
742.879	46.77
743.188	45
743.497	45.96
743.805	45.37
744.114	46.68
744.422	47.41
744.731	45.69
745.04	46.16
745.348	49.93
745.656	49.72
745.965	49.32
746.273	48.85
746.581	49.17
746.889	47.92
747.198	47.29
747.506	50.1
747.814	49.71
748.122	49.55
748.43	50.06
748.738	50.62
749.046	49.93
749.353	50.29
749.661	50.74
749.969	53.1
750.277	53.39
750.584	53.3
750.892	55.13
751.199	54.67
751.507	55.56
751.814	55.73
752.122	53.58
752.429	52.97
752.736	53.3
753.044	50.74
753.351	51.33
753.658	51.27
753.965	51.57
754.272	50.72
754.579	52.21
754.886	53.6
755.193	52.95
755.5	52.8
755.807	53.23
756.114	53.61
756.42	52.75
756.727	53.51
757.034	55.22
757.34	56
757.647	54.92
757.953	56.48
758.26	55.57
758.566	55.1
758.872	53.63
759.179	53.48
759.485	52.63
759.791	53.11
760.097	51.91
760.403	51.51
760.709	53.54
761.015	50.28
761.321	50.37
761.627	50.79
761.933	50.02
762.239	48.95
762.545	44.92
762.851	42.22
763.156	41.92
763.462	43.51
763.767	45.72
764.073	45.05
764.378	46.06
764.684	44.95
764.989	44.47
765.295	41.33
765.6	39.84
765.905	42.52
766.21	43.16
766.515	44.95
766.821	44.64
767.126	45.03
767.431	46.4
767.736	50.12
768.041	48.06
768.345	46.2
768.65	50.73
768.955	53.81
769.26	56.84
769.564	58.71
769.869	58.08
770.174	62.33
770.478	66.98
770.783	67.8
771.087	68.28
771.391	61.09
771.696	67.3
772	72.35
772.304	73.92
772.608	74.6
772.913	78.55
773.217	81.59
773.521	81.8
773.825	82.61
774.129	83.79
774.433	79.67
774.736	71.3
775.04	72.19
775.344	72.17
775.648	75.4
775.951	78.73
776.255	79.52
776.559	74.15
776.862	71.38
777.166	76.76
777.469	74.14
777.772	72.58
778.076	73.38
778.379	74.39
778.682	72.82
778.985	72.41
779.289	70.42
779.592	65.62
779.895	65.22
780.198	65.01
780.501	63.16
780.804	60.78
781.106	62.11
781.409	55.82
781.712	54.25
782.015	59.06
782.317	64.62
782.62	60.78
782.923	61.19
783.225	61.11
783.527	56.1
783.83	52.35
784.132	58.57
784.435	59.5
784.737	52.31
785.039	51.2
785.341	53.93
785.643	48.61
785.945	41.73
786.248	44.27
786.55	53.23
786.851	50.47
787.153	44.9
787.455	44.4
787.757	45.86
788.059	50.3
788.36	52.73
788.662	56.38
788.964	66.5
789.265	61.57
789.567	60.79
789.868	59.41
790.17	69.93
790.471	68.57
790.772	65.82
791.074	67.39
791.375	70.64
791.676	64.24
791.977	60.75
792.278	59.86
792.579	67.24
792.88	62.45
793.181	63.23
793.482	71.01
793.783	66.84
794.083	61.12
794.384	65.47
794.685	67.5
794.986	65.92
795.286	59.45
795.587	57.29
795.887	57.68
796.188	54.15
796.488	51.63
796.788	56.35
797.089	55.84
797.389	57.15
797.689	49.52
797.989	49.34
798.289	51.92
798.589	52.28
798.889	40.7
799.189	49.61
799.489	48.49
799.789	39.35
800.089	38.81
800.389	53.81
800.688	57.59
800.988	51.84
801.288	53.31
801.587	44.94
801.887	26.93
802.186	20.55
802.486	7.76
802.785	10.99
803.085	13.37
803.384	10.28
803.683	6.87
803.982	2.64
804.281	-2.59
804.58	-1.92
804.879	5.51
805.178	14.12
805.477	25.57
805.776	35.79
806.075	35.71
806.374	43.84
806.673	37.22
806.971	38.88
807.27	40.51
807.569	42.18
807.867	26.36
808.166	31.18
808.464	38.41
808.763	26.85
809.061	52.52
809.359	61.12
809.658	99.5
809.956	158.14
810.254	172.73
810.552	191.98
810.85	137.55
811.148	122.56
811.446	121.73
811.744	128.38
812.042	151.31
812.34	120.89
812.638	133.25
812.935	137.77
813.233	118.92
813.531	122.99
813.828	115.09
814.126	128.91
814.423	150.54
814.721	214.78
815.018	274.03
815.316	244.14
815.613	206.97
815.91	206.25
816.207	227.04
816.504	183.16
816.802	181.59
817.099	88.59
817.396	37.32
817.693	48.87
817.99	50.2
818.286	35.71
818.583	37.44
818.88	73.19
819.177	58.38
819.473	66.61
819.77	71.52
820.067	45.77
820.363	32.72
820.66	21.88
820.956	15.2
821.252	8.75
821.549	20.79
821.845	26.18
822.141	23.08
822.437	21.18
822.734	36.81
823.03	37.36
823.326	51.14
823.622	43.62
823.918	47.13
824.213	34.27
824.509	46.55
824.805	49.76
825.101	42.38
825.397	44.45
825.692	29.81
825.988	31.35
826.283	31.78
826.579	39.53
826.874	33.3
827.17	45.25
827.465	57.45
827.76	86.47
828.056	81.61
828.351	85.27
828.646	70.39
828.941	57.62
829.236	52.46
829.531	43.06
829.826	44.89
830.121	36.08
830.416	43.67
830.711	42.59
831.006	42.66
831.3	41.67
831.595	41.67
831.89	36.09
832.184	46.83
832.479	44.55
832.773	44.07
833.068	56.03
833.362	65.26
833.656	56.03
833.951	42.94
834.245	48.93
834.539	32.74
834.833	26.14
835.127	13.49
835.421	9.01
835.715	12.96
836.009	36.95
836.303	32.1
836.597	29.3
836.891	28.3
837.185	18.75
837.478	9.32
837.772	8.2
838.066	10.09
838.359	4.27
838.653	2.34
838.946	13.85
839.24	13.91
839.533	16.93
839.826	25.74
840.119	10.41
840.413	8.41
840.706	-8.43
840.999	-15.97
841.292	-13.21
841.585	-10.83
841.878	18.3
842.171	8.05
842.464	13.88
842.757	29.85
843.049	21.11
843.342	-1.89
843.635	-5.3
843.927	-7.19
844.22	-15.66
844.513	-22.73
844.805	-11.95
845.098	-13.01
845.39	-29.04
845.682	-6.78
845.975	-7.26
846.267	10.36
846.559	22.5
846.851	13.3
847.143	12.36
847.435	34.29
847.727	25.28
848.019	22.31
848.311	29.47
848.603	28.66
848.895	34.39
849.186	8.51
849.478	22.32
849.77	24.42
850.061	13.09
850.353	25.61
850.645	21.9
850.936	42.99
851.227	39.35
851.519	39.54
851.81	40.47
852.101	44.25
852.393	53.54
852.684	59.7
852.975	62.21
853.266	50.74
853.557	36.31
853.848	26.54
854.139	25.72
854.43	17.66
854.72	15.34
855.011	14.18
855.302	0.35
855.593	1.12
855.883	-15.21
856.174	-25.34
856.464	-5.24
856.755	-25.77
857.045	-22.19
857.336	7.7
857.626	-42.09
857.916	-13.8
858.206	-47.2
858.497	-38.99
858.787	-43.45
859.077	-61.78
859.367	-56.57
859.657	-74.54
859.947	-74.37
860.237	-86.98
860.527	-98.28
860.816	-121.67
861.106	-87.12
861.396	-147.43
861.685	-106.2
861.975	-91.06
862.265	-90.82
862.554	-70.31
862.844	-146.95
863.133	-151.94
863.422	-110.25
863.712	-73.92
864.001	-41.52
864.29	-51.53
864.579	-73.39
864.868	-56.65
865.157	-73.52
865.446	-77.54
865.735	-80.88
866.024	-86.94
866.313	-50.23
866.602	-77.89
866.891	-112.42
867.179	-133.4
867.468	-96.02
