Data from T1_Reflection__87__14-25-02-951.txt Node

Date: Thu Jun 03 14:25:02 CEST 2021
User: mabdelazizm
Spectrometer: FLMS18565
Trigger mode: 0
Integration Time (sec): 2.000000E0
Scans to average: 1
Electric dark correction enabled: true
Nonlinearity correction enabled: false
Boxcar width: 12
XAxis mode: Wavelengths
Number of Pixels in Spectrum: 2048
>>>>>Begin Spectral Data<<<<<
179.071	49.19
179.452	73.38
179.833	64.98
180.214	77.46
180.595	70.82
180.977	81.06
181.358	87.16
181.739	70.3
182.12	41.2
182.501	16.17
182.882	-27.08
183.262	-40.2
183.643	-28.3
184.024	-8.38
184.405	12.22
184.786	13.93
185.166	19.05
185.547	17.87
185.927	19.96
186.308	31.4
186.689	36.31
187.069	39.94
187.449	31.32
187.83	21.93
188.21	19.95
188.59	19.15
188.971	16.83
189.351	16.03
189.731	12.91
190.111	16.91
190.491	18.39
190.871	22.75
191.251	23.17
191.631	27.67
192.011	27.98
192.391	31.39
192.771	33.07
193.151	33.46
193.531	31.05
193.91	31.36
194.29	31.41
194.67	29.14
195.049	28.82
195.429	28.27
195.808	23.25
196.188	21.37
196.567	18.56
196.946	18.95
197.326	21.69
197.705	21.79
198.084	22.58
198.464	21.41
198.843	20.47
199.222	20.61
199.601	20.08
199.98	17.07
200.359	15.16
200.738	14.79
201.117	12.94
201.496	11.66
201.875	10.68
202.254	8.98
202.632	9.11
203.011	10.83
203.39	11.24
203.768	12.55
204.147	12.5
204.525	11.69
204.904	12.18
205.282	14.61
205.661	14.81
206.039	17.77
206.418	17.21
206.796	17.78
207.174	16.68
207.552	15.44
207.931	14.77
208.309	15.34
208.687	15.54
209.065	17.07
209.443	16.39
209.821	16.34
210.199	17.61
210.577	17.02
210.954	18.21
211.332	17.96
211.71	16.68
212.088	15.26
212.465	14.22
212.843	12.55
213.221	11.01
213.598	11.81
213.976	11.98
214.353	11.88
214.731	11.1
215.108	11.17
215.485	9.15
215.863	8.27
216.24	7.28
216.617	8.26
216.994	8.92
217.371	8.97
217.749	7.92
218.126	7.9
218.503	7.14
218.88	8.26
219.256	8.65
219.633	8.04
220.01	7.42
220.387	8.01
220.764	7.33
221.14	7.76
221.517	8.3
221.894	8.33
222.27	8.15
222.647	8.33
223.023	7.48
223.4	7.5
223.776	7.76
224.153	7.89
224.529	7.32
224.905	7.76
225.282	8.28
225.658	8.49
226.034	8.31
226.41	8.1
226.786	7.99
227.162	8.22
227.538	7.74
227.914	7.17
228.29	6.93
228.666	6.41
229.042	6.32
229.418	6.58
229.793	6.19
230.169	6.2
230.545	6.23
230.92	6.06
231.296	5.91
231.672	5.92
232.047	5.6
232.422	5.63
232.798	5.49
233.173	5.36
233.549	5.07
233.924	5.12
234.299	4.87
234.674	4.75
235.05	4.47
235.425	4.35
235.8	4.21
236.175	4.22
236.55	4.1
236.925	4.05
237.3	4.09
237.675	4.02
238.049	4.04
238.424	4.04
238.799	4.06
239.174	4.04
239.548	4
239.923	3.99
240.297	3.88
240.672	3.88
241.046	3.85
241.421	3.95
241.795	3.9
242.17	3.92
242.544	3.88
242.918	3.95
243.293	3.93
243.667	3.93
244.041	3.89
244.415	3.9
244.789	3.83
245.163	3.83
245.537	3.79
245.911	3.73
246.285	3.74
246.659	3.72
247.033	3.72
247.406	3.67
247.78	3.6
248.154	3.54
248.528	3.5
248.901	3.54
249.275	3.47
249.648	3.46
250.022	3.51
250.395	3.47
250.769	3.41
251.142	3.42
251.515	3.33
251.888	3.32
252.262	3.24
252.635	3.16
253.008	3.08
253.381	3.07
253.754	3.07
254.127	3.1
254.5	3.09
254.873	3.1
255.246	3.18
255.619	3.22
255.992	3.18
256.364	3.14
256.737	3.15
257.11	3.19
257.483	3.19
257.855	3.24
258.228	3.23
258.6	3.21
258.973	3.25
259.345	3.2
259.718	3.17
260.09	3.2
260.462	3.23
260.834	3.25
261.207	3.2
261.579	3.22
261.951	3.19
262.323	3.17
262.695	3.13
263.067	3.16
263.439	3.16
263.811	3.11
264.183	3.06
264.555	3.06
264.927	3.03
265.298	3.06
265.67	3.04
266.042	3.05
266.413	2.99
266.785	2.97
267.156	2.97
267.528	2.96
267.899	2.96
268.271	2.93
268.642	2.88
269.013	2.84
269.385	2.83
269.756	2.75
270.127	2.73
270.498	2.7
270.87	2.65
271.241	2.69
271.612	2.77
271.983	2.79
272.354	2.75
272.724	2.73
273.095	2.75
273.466	2.75
273.837	2.66
274.208	2.64
274.578	2.59
274.949	2.64
275.32	2.61
275.69	2.63
276.061	2.59
276.431	2.51
276.802	2.46
277.172	2.46
277.542	2.42
277.913	2.41
278.283	2.43
278.653	2.39
279.023	2.45
279.394	2.46
279.764	2.47
280.134	2.46
280.504	2.44
280.874	2.45
281.244	2.42
281.614	2.41
281.983	2.41
282.353	2.33
282.723	2.32
283.093	2.33
283.462	2.29
283.832	2.32
284.202	2.31
284.571	2.36
284.941	2.33
285.31	2.32
285.68	2.32
286.049	2.34
286.418	2.28
286.788	2.37
287.157	2.34
287.526	2.36
287.895	2.35
288.264	2.34
288.633	2.28
289.002	2.26
289.371	2.3
289.74	2.34
290.109	2.28
290.478	2.27
290.847	2.21
291.216	2.22
291.585	2.28
291.953	2.26
292.322	2.24
292.691	2.26
293.059	2.21
293.428	2.18
293.796	2.11
294.165	2.07
294.533	2.05
294.901	2.07
295.27	2.08
295.638	2.11
296.006	1.97
296.374	1.95
296.743	1.94
297.111	1.9
297.479	1.84
297.847	1.92
298.215	1.89
298.583	1.89
298.95	1.85
299.318	1.86
299.686	1.85
300.054	1.9
300.422	1.88
300.789	1.83
301.157	1.84
301.525	1.83
301.892	1.81
302.26	1.82
302.627	1.79
302.994	1.8
303.362	1.81
303.729	1.85
304.097	1.84
304.464	1.73
304.831	1.74
305.198	1.76
305.565	1.77
305.932	1.74
306.299	1.74
306.666	1.73
307.033	1.68
307.4	1.75
307.767	1.68
308.134	1.64
308.501	1.62
308.867	1.59
309.234	1.55
309.601	1.53
309.967	1.56
310.334	1.57
310.701	1.54
311.067	1.5
311.433	1.49
311.8	1.49
312.166	1.42
312.533	1.44
312.899	1.42
313.265	1.42
313.631	1.46
313.997	1.42
314.363	1.4
314.729	1.4
315.096	1.34
315.461	1.39
315.827	1.44
316.193	1.43
316.559	1.35
316.925	1.37
317.291	1.37
317.656	1.35
318.022	1.42
318.388	1.43
318.753	1.43
319.119	1.41
319.484	1.42
319.85	1.44
320.215	1.52
320.581	1.51
320.946	1.51
321.311	1.54
321.676	1.56
322.042	1.56
322.407	1.55
322.772	1.58
323.137	1.65
323.502	1.72
323.867	1.74
324.232	1.79
324.597	1.76
324.962	1.68
325.327	1.64
325.691	1.68
326.056	1.66
326.421	1.68
326.785	1.69
327.15	1.63
327.514	1.59
327.879	1.64
328.243	1.63
328.608	1.64
328.972	1.67
329.337	1.62
329.701	1.66
330.065	1.68
330.429	1.69
330.794	1.6
331.158	1.6
331.522	1.56
331.886	1.55
332.25	1.52
332.614	1.52
332.978	1.49
333.342	1.48
333.705	1.46
334.069	1.47
334.433	1.49
334.797	1.47
335.16	1.44
335.524	1.44
335.887	1.46
336.251	1.47
336.614	1.51
336.978	1.43
337.341	1.38
337.705	1.31
338.068	1.33
338.431	1.34
338.794	1.34
339.158	1.28
339.521	1.27
339.884	1.3
340.247	1.34
340.61	1.31
340.973	1.3
341.336	1.26
341.699	1.2
342.062	1.21
342.424	1.19
342.787	1.19
343.15	1.22
343.512	1.22
343.875	1.23
344.238	1.3
344.6	1.32
344.963	1.31
345.325	1.36
345.688	1.34
346.05	1.34
346.412	1.38
346.775	1.39
347.137	1.35
347.499	1.36
347.861	1.39
348.223	1.37
348.585	1.36
348.947	1.4
349.309	1.32
349.671	1.41
350.033	1.44
350.395	1.42
350.757	1.45
351.118	1.49
351.48	1.55
351.842	1.56
352.203	1.5
352.565	1.56
352.927	1.6
353.288	1.58
353.65	1.55
354.011	1.57
354.372	1.52
354.734	1.55
355.095	1.57
355.456	1.6
355.817	1.62
356.179	1.6
356.54	1.61
356.901	1.48
357.262	1.51
357.623	1.58
357.984	1.54
358.345	1.62
358.705	1.48
359.066	1.47
359.427	1.49
359.788	1.46
360.148	1.41
360.509	1.29
360.87	1.31
361.23	1.29
361.591	1.24
361.951	1.2
362.312	1.16
362.672	1.16
363.032	1.22
363.393	1.23
363.753	1.23
364.113	1.16
364.473	1.2
364.833	1.18
365.193	1.2
365.553	1.23
365.913	1.26
366.273	1.26
366.633	1.26
366.993	1.25
367.353	1.17
367.713	1.19
368.072	1.16
368.432	1.16
368.792	1.18
369.151	1.22
369.511	1.32
369.87	1.35
370.23	1.45
370.589	1.48
370.949	1.51
371.308	1.52
371.667	1.53
372.027	1.43
372.386	1.43
372.745	1.45
373.104	1.5
373.463	1.47
373.822	1.48
374.181	1.48
374.54	1.44
374.899	1.52
375.258	1.49
375.617	1.42
375.975	1.45
376.334	1.53
376.693	1.63
377.052	1.69
377.41	1.7
377.769	1.72
378.127	1.68
378.486	1.72
378.844	1.64
379.202	1.63
379.561	1.6
379.919	1.59
380.277	1.58
380.636	1.62
380.994	1.62
381.352	1.57
381.71	1.63
382.068	1.68
382.426	1.61
382.784	1.62
383.142	1.67
383.5	1.57
383.857	1.53
384.215	1.58
384.573	1.54
384.931	1.51
385.288	1.41
385.646	1.38
386.003	1.29
386.361	1.29
386.718	1.33
387.076	1.35
387.433	1.3
387.791	1.28
388.148	1.3
388.505	1.29
388.862	1.29
389.22	1.35
389.577	1.33
389.934	1.38
390.291	1.48
390.648	1.44
391.005	1.47
391.362	1.48
391.718	1.47
392.075	1.47
392.432	1.55
392.789	1.56
393.145	1.55
393.502	1.69
393.859	1.75
394.215	1.78
394.572	1.8
394.928	1.86
395.285	1.89
395.641	1.94
395.997	2.02
396.354	1.99
396.71	2.1
397.066	2.15
397.422	2.26
397.778	2.35
398.134	2.37
398.491	2.42
398.846	2.43
399.202	2.44
399.558	2.45
399.914	2.45
400.27	2.62
400.626	2.73
400.981	2.75
401.337	2.82
401.693	2.9
402.048	3.06
402.404	3.12
402.759	3.17
403.115	3.38
403.47	3.48
403.826	3.66
404.181	3.76
404.536	3.82
404.892	3.89
405.247	4.03
405.602	4.22
405.957	4.33
406.312	4.37
406.667	4.51
407.022	4.72
407.377	4.91
407.732	5.09
408.087	5.31
408.442	5.6
408.796	5.8
409.151	5.96
409.506	6.21
409.86	6.42
410.215	6.75
410.57	7.04
410.924	7.26
411.279	7.57
411.633	7.89
411.987	8.14
412.342	8.52
412.696	8.72
413.05	9.13
413.404	9.41
413.758	9.86
414.113	10.22
414.467	10.54
414.821	10.81
415.175	11.31
415.529	11.61
415.882	12
416.236	12.36
416.59	12.93
416.944	13.32
417.298	13.67
417.651	14.11
418.005	14.57
418.358	14.97
418.712	15.42
419.065	15.75
419.419	16.15
419.772	16.53
420.126	16.84
420.479	17.25
420.832	17.68
421.185	18.06
421.539	18.51
421.892	18.86
422.245	19.28
422.598	19.63
422.951	20.07
423.304	20.4
423.657	20.88
424.01	21.29
424.363	21.79
424.715	22.24
425.068	22.64
425.421	22.87
425.773	23.29
426.126	23.79
426.479	24.06
426.831	24.46
427.184	24.77
427.536	25.07
427.889	25.4
428.241	25.72
428.593	26.02
428.945	26.41
429.298	26.63
429.65	26.92
430.002	27.11
430.354	27.43
430.706	27.72
431.058	28.02
431.41	28.36
431.762	28.64
432.114	28.97
432.466	29.19
432.817	29.34
433.169	29.69
433.521	29.97
433.872	30.22
434.224	30.45
434.576	30.61
434.927	30.7
435.279	31.01
435.63	31.12
435.981	31.38
436.333	31.76
436.684	31.92
437.035	32
437.387	32.21
437.738	32.3
438.089	32.5
438.44	32.61
438.791	32.86
439.142	32.94
439.493	33.11
439.844	33.29
440.195	33.28
440.545	33.38
440.896	33.57
441.247	33.65
441.598	33.85
441.948	33.93
442.299	33.97
442.649	34.01
443	34.25
443.35	34.3
443.701	34.37
444.051	34.32
444.401	34.47
444.752	34.63
445.102	34.58
445.452	34.76
445.802	34.94
446.152	34.92
446.502	35.02
446.852	35.1
447.202	35.07
447.552	34.99
447.902	35.13
448.252	35.19
448.602	35.6
448.952	35.7
449.301	35.8
449.651	35.84
450.001	35.99
450.35	36.05
450.7	36.01
451.049	36.04
451.399	36.19
451.748	36.17
452.097	36.19
452.447	36.2
452.796	36.45
453.145	36.44
453.494	36.33
453.843	36.28
454.193	36.3
454.542	36.36
454.891	36.51
455.239	36.48
455.588	36.59
455.937	36.77
456.286	36.93
456.635	36.98
456.984	36.87
457.332	36.41
457.681	36.37
458.03	36.33
458.378	36.25
458.727	36.21
459.075	36.12
459.423	36.24
459.772	36.27
460.12	36.17
460.468	36.19
460.817	36.21
461.165	36.26
461.513	36.1
461.861	36.14
462.209	36.07
462.557	36.02
462.905	35.83
463.253	35.8
463.601	35.79
463.949	35.74
464.297	35.59
464.644	35.55
464.992	35.43
465.34	35.27
465.687	35.32
466.035	35.21
466.383	35.33
466.73	35.22
467.078	35.13
467.425	35.1
467.772	35.11
468.12	34.84
468.467	34.67
468.814	34.62
469.161	34.44
469.508	34.39
469.856	34.42
470.203	34.35
470.55	34.23
470.897	34.15
471.243	34.17
471.59	34.18
471.937	33.98
472.284	33.9
472.631	33.72
472.977	33.65
473.324	33.53
473.671	33.45
474.017	33.35
474.364	33.26
474.71	33.11
475.057	32.91
475.403	32.78
475.749	32.71
476.096	32.53
476.442	32.26
476.788	32.18
477.134	32.11
477.48	31.93
477.826	31.83
478.172	31.74
478.518	31.48
478.864	31.31
479.21	31.25
479.556	31.15
479.902	30.95
480.248	30.87
480.593	30.87
480.939	30.67
481.285	30.67
481.63	30.53
481.976	30.32
482.321	30.24
482.667	30.14
483.012	30.01
483.357	29.98
483.703	29.86
484.048	29.8
484.393	29.68
484.738	29.63
485.084	29.61
485.429	29.52
485.774	29.36
486.119	29.31
486.464	29.16
486.808	28.96
487.153	28.89
487.498	28.8
487.843	28.67
488.188	28.56
488.532	28.44
488.877	28.19
489.222	27.96
489.566	27.87
489.911	27.73
490.255	27.63
490.6	27.6
490.944	27.43
491.288	27.32
491.633	27.21
491.977	27.15
492.321	27.04
492.665	26.84
493.009	26.7
493.353	26.55
493.697	26.47
494.041	26.38
494.385	26.35
494.729	26.26
495.073	26.19
495.417	26.15
495.76	26.03
496.104	25.91
496.448	25.75
496.791	25.63
497.135	25.54
497.479	25.47
497.822	25.37
498.165	25.24
498.509	25.13
498.852	24.98
499.196	24.87
499.539	24.79
499.882	24.67
500.225	24.55
500.568	24.45
500.911	24.36
501.254	24.36
501.597	24.3
501.94	24.24
502.283	24.07
502.626	24
502.969	23.89
503.312	23.72
503.654	23.66
503.997	23.57
504.34	23.42
504.682	23.34
505.025	23.27
505.367	23.22
505.71	23.11
506.052	23.06
506.395	23.02
506.737	22.96
507.079	22.78
507.421	22.7
507.764	22.61
508.106	22.38
508.448	22.28
508.79	22.2
509.132	22.06
509.474	22.04
509.816	21.95
510.158	21.83
510.499	21.71
510.841	21.62
511.183	21.4
511.525	21.37
511.866	21.34
512.208	21.2
512.549	21.03
512.891	20.96
513.232	20.94
513.574	20.85
513.915	20.74
514.256	20.59
514.598	20.57
514.939	20.5
515.28	20.4
515.621	20.37
515.962	20.4
516.303	20.31
516.644	20.41
516.985	20.38
517.326	20.21
517.667	20.13
518.008	19.97
518.349	19.92
518.69	19.8
519.03	19.68
519.371	19.62
519.712	19.68
520.052	19.45
520.393	19.38
520.733	19.35
521.074	19.35
521.414	19.29
521.754	19.21
522.095	19.08
522.435	19.05
522.775	19.06
523.115	18.85
523.455	18.77
523.795	18.78
524.135	18.71
524.475	18.55
524.815	18.5
525.155	18.45
525.495	18.39
525.835	18.47
526.175	18.39
526.514	18.31
526.854	18.13
527.194	18.1
527.533	18.12
527.873	18.02
528.212	17.95
528.552	18.01
528.891	17.97
529.23	17.9
529.57	17.79
529.909	17.77
530.248	17.62
530.587	17.64
530.927	17.54
531.266	17.5
531.605	17.43
531.944	17.25
532.283	17.14
532.621	17.12
532.96	17.06
533.299	17.02
533.638	16.95
533.977	16.79
534.315	16.69
534.654	16.6
534.992	16.57
535.331	16.59
535.67	16.53
536.008	16.4
536.346	16.54
536.685	16.4
537.023	16.25
537.361	16.1
537.7	16.05
538.038	16.09
538.376	16.05
538.714	16.05
539.052	15.96
539.39	16.02
539.728	15.98
540.066	15.99
540.404	15.99
540.741	15.92
541.079	15.9
541.417	15.89
541.755	15.81
542.092	15.73
542.43	15.68
542.767	15.63
543.105	15.63
543.442	15.58
543.78	15.53
544.117	15.64
544.454	15.67
544.792	15.57
545.129	15.69
545.466	15.75
545.803	15.83
546.14	15.82
546.477	15.78
546.814	15.85
547.151	15.87
547.488	15.87
547.825	15.65
548.162	15.62
548.499	15.61
548.835	15.63
549.172	15.48
549.509	15.52
549.845	15.42
550.182	15.49
550.518	15.51
550.855	15.54
551.191	15.6
551.528	15.58
551.864	15.57
552.2	15.69
552.537	15.6
552.873	15.64
553.209	15.68
553.545	15.54
553.881	15.59
554.217	15.58
554.553	15.48
554.889	15.5
555.225	15.45
555.561	15.4
555.896	15.43
556.232	15.47
556.568	15.53
556.903	15.61
557.239	15.54
557.575	15.78
557.91	15.77
558.245	15.93
558.581	15.79
558.916	15.77
559.252	15.92
559.587	15.87
559.922	15.9
560.257	15.92
560.592	15.77
560.928	15.69
561.263	15.58
561.598	15.36
561.933	15.45
562.267	15.5
562.602	15.47
562.937	15.54
563.272	15.5
563.607	15.42
563.941	15.5
564.276	15.5
564.611	15.53
564.945	15.42
565.28	15.34
565.614	15.47
565.949	15.41
566.283	15.46
566.617	15.49
566.951	15.59
567.286	15.62
567.62	15.55
567.954	15.63
568.288	15.63
568.622	15.61
568.956	15.56
569.29	15.58
569.624	15.62
569.958	15.69
570.292	15.75
570.626	15.8
570.959	15.89
571.293	15.94
571.627	15.93
571.96	16.06
572.294	16.02
572.627	16
572.961	16.06
573.294	16.04
573.627	16.1
573.961	16.11
574.294	16.15
574.627	16.18
574.961	16.19
575.294	16.18
575.627	16.17
575.96	16.18
576.293	16.1
576.626	16.15
576.959	16.2
577.292	16.27
577.624	16.31
577.957	16.4
578.29	16.47
578.623	16.44
578.955	16.31
579.288	16.33
579.62	16.34
579.953	16.41
580.285	16.34
580.618	16.41
580.95	16.5
581.282	16.54
581.615	16.64
581.947	16.67
582.279	16.72
582.611	16.7
582.943	16.7
583.275	16.71
583.607	16.83
583.939	16.85
584.271	16.98
584.603	17.12
584.935	17.24
585.267	17.21
585.598	17.29
585.93	17.36
586.262	17.3
586.593	17.28
586.925	17.37
587.256	17.57
587.588	17.58
587.919	17.64
588.25	17.7
588.582	17.76
588.913	17.84
589.244	17.9
589.575	17.95
589.907	18
590.238	18.08
590.569	18.21
590.9	18.3
591.231	18.32
591.562	18.37
591.892	18.38
592.223	18.69
592.554	18.69
592.885	18.88
593.215	18.82
593.546	18.96
593.877	18.95
594.207	18.98
594.538	19.14
594.868	19.22
595.198	19.27
595.529	19.33
595.859	19.41
596.189	19.49
596.52	19.54
596.85	19.64
597.18	19.78
597.51	19.77
597.84	19.82
598.17	19.97
598.5	19.96
598.83	20.07
599.16	20.37
599.489	20.56
599.819	20.77
600.149	20.89
600.479	20.93
600.808	21.06
601.138	21.17
601.467	21.4
601.797	21.62
602.126	21.95
602.456	22.31
602.785	22.51
603.114	22.81
603.443	23.01
603.773	23.36
604.102	23.59
604.431	23.69
604.76	23.9
605.089	24.13
605.418	24.24
605.747	24.38
606.076	24.55
606.405	24.65
606.733	24.91
607.062	24.99
607.391	25.09
607.72	25.19
608.048	25.28
608.377	25.55
608.705	25.83
609.034	26.05
609.362	26.23
609.69	26.44
610.019	26.62
610.347	26.68
610.675	26.9
611.004	26.98
611.332	27.03
611.66	27.18
611.988	27.18
612.316	27.26
612.644	27.54
612.972	27.69
613.3	27.65
613.627	27.75
613.955	28.12
614.283	28.52
614.611	28.92
614.938	29.18
615.266	29.4
615.593	29.52
615.921	29.84
616.248	30.14
616.576	30.32
616.903	30.36
617.23	30.77
617.558	31.2
617.885	31.33
618.212	31.44
618.539	31.78
618.866	31.94
619.193	32.07
619.52	32.42
619.847	32.79
620.174	32.94
620.501	33.22
620.828	33.21
621.155	33.32
621.481	33.64
621.808	33.99
622.135	34.06
622.461	34.06
622.788	34.2
623.114	34.49
623.441	34.54
623.767	34.68
624.093	34.84
624.42	35.01
624.746	35.2
625.072	35.57
625.398	35.73
625.725	35.7
626.051	35.8
626.377	35.94
626.703	36.09
627.029	36
627.354	36.71
627.68	36.87
628.006	36.76
628.332	37.1
628.658	37.5
628.983	37.5
629.309	37.7
629.634	38.07
629.96	38.29
630.285	38.48
630.611	38.42
630.936	38.41
631.262	38.28
631.587	38.57
631.912	38.7
632.237	38.76
632.562	39.07
632.887	39.6
633.213	39.82
633.538	39.79
633.863	39.56
634.187	39.83
634.512	40.23
634.837	40.12
635.162	40.09
635.487	39.96
635.811	40.32
636.136	40.69
636.461	40.49
636.785	40.43
637.11	41.2
637.434	41.82
637.758	42.19
638.083	42.49
638.407	43
638.731	43.52
639.056	43.83
639.38	44.05
639.704	44.41
640.028	45.4
640.352	45.83
640.676	46.24
641	45.95
641.324	45.83
641.648	45.65
641.972	45.93
642.295	46.72
642.619	46.6
642.943	46.82
643.266	46.75
643.59	46.39
643.913	46.18
644.237	46.5
644.56	46.42
644.884	46.21
645.207	45.94
645.53	45.73
645.854	45.74
646.177	45.55
646.5	45.09
646.823	44.98
647.146	44.95
647.469	44.53
647.792	44.81
648.115	43.54
648.438	43.78
648.761	45.52
649.084	46.4
649.406	46.27
649.729	45.85
650.052	45.66
650.374	45.38
650.697	45.58
651.019	45.7
651.342	45.86
651.664	45.85
651.987	45.76
652.309	45.69
652.631	45.93
652.953	46.22
653.276	46.2
653.598	46.09
653.92	46.16
654.242	46.3
654.564	46.49
654.886	46.52
655.208	46.38
655.53	46.47
655.851	46.38
656.173	46.77
656.495	46.73
656.816	45.98
657.138	45.4
657.46	45.66
657.781	46.82
658.103	48.06
658.424	48.56
658.746	48.75
659.067	48.26
659.388	48.29
659.709	48.5
660.031	48.87
660.352	48.73
660.673	48.83
660.994	47.3
661.315	47.7
661.636	48.1
661.957	48.14
662.278	47.68
662.599	48.26
662.919	48.11
663.24	49.09
663.561	50.01
663.881	49.87
664.202	49.18
664.523	48.94
664.843	49.08
665.164	49.64
665.484	49.15
665.804	49.11
666.125	48.83
666.445	49.25
666.765	48.79
667.085	49.63
667.405	49.83
667.726	51.21
668.046	50.8
668.366	51.23
668.686	51.21
669.005	52.07
669.325	52.47
669.645	52.64
669.965	52.01
670.285	51.88
670.604	50.62
670.924	50.78
671.243	50.77
671.563	50.16
671.882	50.51
672.202	51.47
672.521	52.08
672.841	51.79
673.16	51.58
673.479	52.15
673.798	51.38
674.117	51.58
674.437	51.81
674.756	52.6
675.075	53.13
675.394	52.71
675.713	51.91
676.031	52.46
676.35	52.39
676.669	52
676.988	52.14
677.306	51.72
677.625	51.54
677.944	51.84
678.262	52.22
678.581	52.63
678.899	52.86
679.218	52.31
679.536	52.47
679.854	51.71
680.172	51.05
680.491	50.65
680.809	50.68
681.127	50.91
681.445	50.81
681.763	51.22
682.081	50.91
682.399	50.34
682.717	49.56
683.035	48.92
683.352	49.24
683.67	49.22
683.988	49.52
684.306	49.56
684.623	49.23
684.941	49.4
685.258	49.42
685.576	49.53
685.893	49.52
686.211	49.11
686.528	49.55
686.845	49.57
687.162	49.5
687.48	49.3
687.797	48.91
688.114	49.15
688.431	49.12
688.748	49.7
689.065	48.82
689.382	48.58
689.699	49.3
690.015	49.6
690.332	50.42
690.649	51
690.966	51.43
691.282	51.34
691.599	51.11
691.915	50.51
692.232	51.01
692.548	51.4
692.865	50.79
693.181	51.79
693.497	52
693.813	52.85
694.13	53.12
694.446	53.48
694.762	54.41
695.078	54.29
695.394	54.82
695.71	56.41
696.026	55.25
696.342	54.68
696.658	54.24
696.973	55.47
697.289	55.08
697.605	55.16
697.92	55.25
698.236	55.25
698.551	54.87
698.867	54.68
699.182	55.47
699.498	55.84
699.813	56.76
700.128	56.47
700.444	56.61
700.759	56.43
701.074	54.35
701.389	54.69
701.704	54.39
702.019	54.14
702.334	53.61
702.649	52.7
702.964	53.48
703.279	53.2
703.594	52.2
703.908	53.11
704.223	53.35
704.538	53.48
704.852	53.79
705.167	54.16
705.481	54.24
705.796	54.38
706.11	53.59
706.425	54.38
706.739	54.51
707.053	53.96
707.368	53.72
707.682	52.82
707.996	52.31
708.31	52.5
708.624	52.74
708.938	54.45
709.252	54.1
709.566	53.47
709.88	54.04
710.193	54.26
710.507	54.22
710.821	53.68
711.135	53.1
711.448	54.37
711.762	54.42
712.075	54.89
712.389	55.54
712.702	54.75
713.015	55.77
713.329	55.89
713.642	55.94
713.955	55.84
714.269	55.49
714.582	55.01
714.895	54.42
715.208	55.15
715.521	55.63
715.834	55.67
716.147	56.98
716.459	57.42
716.772	57.11
717.085	57.5
717.398	57.81
717.71	56.98
718.023	56.95
718.336	55.92
718.648	56.94
718.961	58.54
719.273	56.99
719.585	57.4
719.898	57.76
720.21	57.53
720.522	57.17
720.834	56.81
721.147	55.59
721.459	55.83
721.771	57.44
722.083	57.94
722.395	57.62
722.707	58.04
723.019	57.56
723.33	57.76
723.642	57.79
723.954	55.57
724.265	55.48
724.577	55.13
724.889	54.58
725.2	53.47
725.512	53.5
725.823	53.34
726.135	53.88
726.446	53.95
726.757	53.24
727.068	53.99
727.38	54.06
727.691	54.4
728.002	54.39
728.313	54.64
728.624	52.99
728.935	52.6
729.246	52.3
729.557	52.49
729.867	51.82
730.178	52.09
730.489	52.06
730.8	53.04
731.11	52.71
731.421	53.82
731.731	54.33
732.042	54.38
732.352	52.98
732.663	52.81
732.973	54.39
733.283	55.16
733.594	55.4
733.904	55.91
734.214	55.68
734.524	56.09
734.834	56.27
735.144	55.7
735.454	55.75
735.764	55.66
736.074	55.67
736.384	56.3
736.694	57.65
737.003	58.75
737.313	58.11
737.623	57.87
737.932	58.59
738.242	58.68
738.551	57.68
738.861	57.28
739.17	55.68
739.479	55.4
739.789	54.73
740.098	56.21
740.407	56.8
740.716	55.05
741.025	55.25
741.334	53.83
741.643	54.43
741.952	54.56
742.261	54.92
742.57	55.17
742.879	54.51
743.188	52.04
743.497	50.03
743.805	48.69
744.114	49.11
744.422	50.13
744.731	49.04
745.04	50.17
745.348	54.02
745.656	52.72
745.965	52.08
746.273	51.85
746.581	52.84
746.889	52.49
747.198	53.91
747.506	56.84
747.814	58.31
748.122	58.28
748.43	58
748.738	58.1
749.046	60.35
749.353	59.2
749.661	57.68
749.969	56.65
750.277	56.27
750.584	57.85
750.892	59.08
751.199	62.94
751.507	64.09
751.814	64.55
752.122	62.73
752.429	63.27
752.736	61.71
753.044	59.36
753.351	59.95
753.658	59.77
753.965	59.28
754.272	58.77
754.579	59.78
754.886	58.32
755.193	56.09
755.5	55.88
755.807	55.38
756.114	56.92
756.42	56.4
756.727	54.13
757.034	55.03
757.34	55.47
757.647	56.54
757.953	56.91
758.26	56.36
758.566	57.48
758.872	53.92
759.179	53.86
759.485	54.23
759.791	53.59
760.097	50.78
760.403	52.02
760.709	52.7
761.015	51.33
761.321	53.09
761.627	53.69
761.933	52.97
762.239	52.41
762.545	51.14
762.851	50.75
763.156	49.2
763.462	50.13
763.767	51.22
764.073	50.82
764.378	52.51
764.684	51.42
764.989	51.83
765.295	48.84
765.6	48.04
765.905	51.69
766.21	50.22
766.515	50.44
766.821	51.71
767.126	50.58
767.431	57.28
767.736	61.5
768.041	58.99
768.345	57.98
768.65	58.82
768.955	61.96
769.26	63.35
769.564	65.06
769.869	65.44
770.174	69.78
770.478	72.43
770.783	74.82
771.087	77.53
771.391	76.72
771.696	82.06
772	87.33
772.304	88.24
772.608	88.55
772.913	93.82
773.217	92.88
773.521	87.28
773.825	84.84
774.129	85.89
774.433	82.86
774.736	80.89
775.04	75.59
775.344	70.94
775.648	70.32
775.951	68.55
776.255	69.73
776.559	65.09
776.862	63.44
777.166	67.87
777.469	69.46
777.772	72.13
778.076	74.18
778.379	72.42
778.682	69.65
778.985	62.35
779.289	61.91
779.592	56.96
779.895	55.77
780.198	60
780.501	58.83
780.804	58.63
781.106	62.15
781.409	64.49
781.712	64.86
782.015	69.73
782.317	76.06
782.62	75.73
782.923	81.31
783.225	86.58
783.527	86.15
783.83	90.45
784.132	91.9
784.435	92.69
784.737	87.97
785.039	83.9
785.341	85.1
785.643	81.13
785.945	82.59
786.248	92.19
786.55	103.6
786.851	96.98
787.153	92.14
787.455	96.2
787.757	92.84
788.059	91.59
788.36	94.69
788.662	89.8
788.964	90.29
789.265	90.06
789.567	86.15
789.868	77.28
790.17	78.35
790.471	76.71
790.772	74.51
791.074	75.96
791.375	71.68
791.676	70.67
791.977	70.97
792.278	72.16
792.579	76.49
792.88	71.69
793.181	71.97
793.482	73.85
793.783	62.2
794.083	54.68
794.384	56.99
794.685	65.9
794.986	59.97
795.286	58.21
795.587	57.75
795.887	55.72
796.188	58.65
796.488	57.94
796.788	65.09
797.089	63.25
797.389	69.12
797.689	69.1
797.989	66.4
798.289	55.66
798.589	56.94
798.889	59.78
799.189	59.02
799.489	63.67
799.789	55.44
800.089	46.17
800.389	54.75
800.688	56.49
800.988	61.91
801.288	76
801.587	83.1
801.887	80.66
802.186	70.49
802.486	72.71
802.785	71.36
803.085	67.27
803.384	79.8
803.683	64.56
803.982	66.85
804.281	53.93
804.58	61.65
804.879	60.97
805.178	61.91
805.477	68.22
805.776	85.44
806.075	89.39
806.374	98.52
806.673	90.09
806.971	86.88
807.27	86.74
807.569	102.98
807.867	96.72
808.166	99.36
808.464	90.62
808.763	84.66
809.061	99.23
809.359	100.08
809.658	122.3
809.956	169.5
810.254	217.29
810.552	248.89
810.85	182.54
811.148	187.39
811.446	205.38
811.744	190.28
812.042	209.01
812.34	188.16
812.638	218.09
812.935	287.17
813.233	254.99
813.531	230.2
813.828	209.62
814.126	247.99
814.423	275.05
814.721	323.92
815.018	388.13
815.316	383.97
815.613	350.92
815.91	398.93
816.207	406.81
816.504	336.31
816.802	291.36
817.099	208.08
817.396	143.77
817.693	138.26
817.99	125.7
818.286	119.5
818.583	99.47
818.88	91.97
819.177	85.84
819.473	99.58
819.77	85.37
820.067	60.7
820.363	45.35
820.66	54.89
820.956	52.96
821.252	24.3
821.549	31.37
821.845	38.4
822.141	36.45
822.437	42.51
822.734	35.42
823.03	34.65
823.326	51.66
823.622	48.9
823.918	49.37
824.213	51.7
824.509	65.95
824.805	80.16
825.101	70.07
825.397	89.88
825.692	115.51
825.988	109.5
826.283	134.93
826.579	145.54
826.874	114.84
827.17	136.85
827.465	147.84
827.76	166.15
828.056	154.22
828.351	171.17
828.646	165.72
828.941	140.79
829.236	138.4
829.531	144.03
829.826	132.88
830.121	150.86
830.416	144.13
830.711	121.7
831.006	106.32
831.3	96.24
831.595	95.69
831.89	85.33
832.184	88.06
832.479	90.97
832.773	80.75
833.068	71.9
833.362	84.25
833.656	67.95
833.951	61.7
834.245	62.67
834.539	45.68
834.833	39.15
835.127	35.21
835.421	40.26
835.715	40.39
836.009	50.59
836.303	62.63
836.597	61.05
836.891	54.65
837.185	53.88
837.478	47.26
837.772	54.03
838.066	61.01
838.359	61.18
838.653	76.76
838.946	82.14
839.24	78.61
839.533	71.81
839.826	72.08
840.119	72.78
840.413	87.85
840.706	94.24
840.999	121.86
841.292	136.24
841.585	130.57
841.878	132.85
842.171	129.88
842.464	122.91
842.757	152.25
843.049	154.53
843.342	140.73
843.635	104.02
843.927	120.13
844.22	140.81
844.513	151.77
844.805	138.61
845.098	111.09
845.39	122.4
845.682	132.06
845.975	119.65
846.267	119.12
846.559	149.84
846.851	162.45
847.143	149.63
847.435	183.15
847.727	130.78
848.019	90.06
848.311	90.78
848.603	96.63
848.895	99.24
849.186	90.65
849.478	91.88
849.77	94.78
850.061	73.84
850.353	74.88
850.645	82.25
850.936	102.85
851.227	96.37
851.519	89.21
851.81	91.79
852.101	85.47
852.393	95.04
852.684	81.7
852.975	103.08
853.266	92.72
853.557	81.18
853.848	65.16
854.139	52.64
854.43	51.82
854.72	40.49
855.011	53.69
855.302	81.49
855.593	74.12
855.883	54.52
856.174	48.19
856.464	64.87
856.755	55.55
857.045	45.53
857.336	64.54
857.626	72.38
857.916	77.65
858.206	50.37
858.497	48.83
858.787	63.74
859.077	58.93
859.367	72.49
859.657	66.14
859.947	62.91
860.237	41.96
860.527	69.66
860.816	85.45
861.106	90.3
861.396	124.72
861.685	102.89
861.975	90.05
862.265	65.92
862.554	38.73
862.844	6.25
863.133	-17.12
863.422	20.02
863.712	43.1
864.001	66.09
864.29	72.1
864.579	76.75
864.868	62.84
865.157	41.97
865.446	56.79
865.735	53.23
866.024	41.11
866.313	46.76
866.602	40
866.891	18.98
867.179	59.29
867.468	65.39
