Data from T2_Reflection__0__00-17-10-995.txt Node

Date: Fri Jun 04 00:17:10 CEST 2021
User: mabdelazizm
Spectrometer: FLMS18565
Trigger mode: 0
Integration Time (sec): 2.000000E0
Scans to average: 1
Electric dark correction enabled: true
Nonlinearity correction enabled: false
Boxcar width: 12
XAxis mode: Wavelengths
Number of Pixels in Spectrum: 2048
>>>>>Begin Spectral Data<<<<<
179.071	120.63
179.452	2.95
179.833	-0.2
180.214	-1300
180.595	17.36
180.977	24.14
181.358	-353.06
181.739	215.15
182.12	75.04
182.501	33.94
182.882	55.74
183.262	62.13
183.643	41.68
184.024	14.43
184.405	0.29
184.786	1.84
185.166	4.66
185.547	18.82
185.927	24.21
186.308	17.38
186.689	36.38
187.069	31.96
187.449	33.48
187.83	28.16
188.21	23.52
188.59	25.15
188.971	25.31
189.351	26.05
189.731	23.38
190.111	30.4
190.491	29
190.871	27.7
191.251	27.7
191.631	27.91
192.011	24.48
192.391	21.27
192.771	19.99
193.151	21.93
193.531	23.57
193.91	25.48
194.29	23.06
194.67	23.46
195.049	23.06
195.429	22.34
195.808	23.48
196.188	19.62
196.567	17.63
196.946	23.63
197.326	24.26
197.705	25.93
198.084	25.08
198.464	22.47
198.843	19.78
199.222	21.5
199.601	18.08
199.98	20.82
200.359	22.74
200.738	24.23
201.117	21.75
201.496	23.1
201.875	22.1
202.254	23.93
202.632	21.37
203.011	21.54
203.39	19.42
203.768	20.24
204.147	18.31
204.525	16.17
204.904	13.66
205.282	11.55
205.661	11.63
206.039	14.27
206.418	11.59
206.796	11.7
207.174	14.36
207.552	15.74
207.931	13.82
208.309	14.21
208.687	13.61
209.065	13.58
209.443	13.2
209.821	13.25
210.199	11.36
210.577	12.21
210.954	12.22
211.332	13.18
211.71	12.31
212.088	13.01
212.465	14.42
212.843	16.39
213.221	14.61
213.598	16.11
213.976	14.56
214.353	16.5
214.731	16.79
215.108	17.19
215.485	15.34
215.863	14.12
216.24	13.39
216.617	12.02
216.994	12.82
217.371	13.99
217.749	15.16
218.126	13.21
218.503	12.23
218.88	12.5
219.256	11.15
219.633	11.32
220.01	11.88
220.387	12.03
220.764	11.18
221.14	10.61
221.517	11.58
221.894	9.84
222.27	9.85
222.647	10.46
223.023	9.5
223.4	10.14
223.776	7.67
224.153	8.16
224.529	7.72
224.905	7.94
225.282	8.58
225.658	9.08
226.034	7.82
226.41	7.11
226.786	7.06
227.162	7.22
227.538	7.45
227.914	7.36
228.29	6.56
228.666	5.92
229.042	5.51
229.418	5.65
229.793	5.87
230.169	5.77
230.545	5.77
230.92	5.54
231.296	5.83
231.672	5.53
232.047	5.63
232.422	5.99
232.798	5.65
233.173	6.05
233.549	5.74
233.924	5.74
234.299	5.66
234.674	5.49
235.05	5.47
235.425	5.67
235.8	5.57
236.175	5.58
236.55	5.22
236.925	5.18
237.3	5.22
237.675	5.3
238.049	5.45
238.424	5.61
238.799	5.44
239.174	5.37
239.548	5.57
239.923	5.33
240.297	5.25
240.672	5.12
241.046	5.16
241.421	5.02
241.795	4.96
242.17	4.98
242.544	4.81
242.918	4.91
243.293	4.86
243.667	4.95
244.041	5.02
244.415	5
244.789	4.92
245.163	4.91
245.537	4.91
245.911	4.96
246.285	4.97
246.659	4.91
247.033	4.83
247.406	4.79
247.78	4.75
248.154	4.68
248.528	4.65
248.901	4.56
249.275	4.63
249.648	4.67
250.022	4.74
250.395	4.65
250.769	4.68
251.142	4.62
251.515	4.63
251.888	4.71
252.262	4.65
252.635	4.7
253.008	4.58
253.381	4.43
253.754	4.33
254.127	4.38
254.5	4.37
254.873	4.29
255.246	4.25
255.619	4.24
255.992	4.25
256.364	4.29
256.737	4.27
257.11	4.23
257.483	4.17
257.855	4.11
258.228	4.12
258.6	4.14
258.973	4.07
259.345	3.98
259.718	3.99
260.09	3.95
260.462	3.92
260.834	3.92
261.207	3.9
261.579	3.91
261.951	3.87
262.323	3.8
262.695	3.8
263.067	3.86
263.439	3.81
263.811	3.87
264.183	3.81
264.555	3.83
264.927	3.83
265.298	3.88
265.67	3.82
266.042	3.8
266.413	3.71
266.785	3.79
267.156	3.91
267.528	3.81
267.899	3.75
268.271	3.77
268.642	3.8
269.013	3.8
269.385	3.81
269.756	3.8
270.127	3.81
270.498	3.85
270.87	3.81
271.241	3.74
271.612	3.76
271.983	3.73
272.354	3.69
272.724	3.63
273.095	3.58
273.466	3.59
273.837	3.56
274.208	3.52
274.578	3.43
274.949	3.37
275.32	3.43
275.69	3.45
276.061	3.41
276.431	3.33
276.802	3.39
277.172	3.41
277.542	3.37
277.913	3.36
278.283	3.35
278.653	3.34
279.023	3.35
279.394	3.3
279.764	3.31
280.134	3.34
280.504	3.37
280.874	3.36
281.244	3.43
281.614	3.43
281.983	3.43
282.353	3.38
282.723	3.38
283.093	3.33
283.462	3.4
283.832	3.44
284.202	3.53
284.571	3.39
284.941	3.5
285.31	3.61
285.68	3.62
286.049	3.6
286.418	3.58
286.788	3.55
287.157	3.53
287.526	3.46
287.895	3.41
288.264	3.42
288.633	3.38
289.002	3.29
289.371	3.17
289.74	3.16
290.109	3.17
290.478	3.15
290.847	3.09
291.216	3.13
291.585	3.11
291.953	3.15
292.322	3.23
292.691	3.11
293.059	3.08
293.428	3.03
293.796	3.05
294.165	2.95
294.533	2.86
294.901	2.77
295.27	2.71
295.638	2.71
296.006	2.75
296.374	2.78
296.743	2.8
297.111	2.85
297.479	2.78
297.847	2.73
298.215	2.73
298.583	2.76
298.95	2.74
299.318	2.74
299.686	2.66
300.054	2.64
300.422	2.56
300.789	2.63
301.157	2.59
301.525	2.54
301.892	2.55
302.26	2.58
302.627	2.52
302.994	2.56
303.362	2.54
303.729	2.55
304.097	2.52
304.464	2.54
304.831	2.48
305.198	2.46
305.565	2.39
305.932	2.35
306.299	2.27
306.666	2.36
307.033	2.4
307.4	2.38
307.767	2.36
308.134	2.33
308.501	2.28
308.867	2.27
309.234	2.29
309.601	2.32
309.967	2.2
310.334	2.18
310.701	2.19
311.067	2.17
311.433	2.1
311.8	2.16
312.166	2.11
312.533	2.11
312.899	2.11
313.265	2.09
313.631	2.08
313.997	2.02
314.363	1.97
314.729	1.97
315.096	2.03
315.461	2.02
315.827	1.95
316.193	1.9
316.559	1.87
316.925	1.99
317.291	1.99
317.656	2.02
318.022	2.07
318.388	1.98
318.753	2.04
319.119	2.08
319.484	2.09
319.85	2.04
320.215	2.1
320.581	2.12
320.946	2.14
321.311	2.16
321.676	2.14
322.042	2.1
322.407	2.09
322.772	2.07
323.137	2.18
323.502	2.2
323.867	2.27
324.232	2.16
324.597	2.24
324.962	2.23
325.327	2.28
325.691	2.4
326.056	2.32
326.421	2.35
326.785	2.34
327.15	2.31
327.514	2.4
327.879	2.34
328.243	2.38
328.608	2.43
328.972	2.52
329.337	2.35
329.701	2.29
330.065	2.32
330.429	2.31
330.794	2.3
331.158	2.34
331.522	2.42
331.886	2.42
332.25	2.37
332.614	2.32
332.978	2.26
333.342	2.42
333.705	2.4
334.069	2.46
334.433	2.4
334.797	2.25
335.16	2.28
335.524	2.25
335.887	2.16
336.251	2.11
336.614	2.08
336.978	2.01
337.341	1.93
337.705	1.85
338.068	1.8
338.431	1.87
338.794	1.82
339.158	1.7
339.521	1.65
339.884	1.66
340.247	1.59
340.61	1.62
340.973	1.56
341.336	1.58
341.699	1.58
342.062	1.54
342.424	1.46
342.787	1.41
343.15	1.33
343.512	1.42
343.875	1.46
344.238	1.38
344.6	1.39
344.963	1.45
345.325	1.47
345.688	1.52
346.05	1.53
346.412	1.59
346.775	1.69
347.137	1.63
347.499	1.63
347.861	1.66
348.223	1.73
348.585	1.82
348.947	1.79
349.309	1.75
349.671	1.68
350.033	1.74
350.395	1.72
350.757	1.83
351.118	1.85
351.48	1.77
351.842	1.84
352.203	1.9
352.565	1.81
352.927	1.78
353.288	1.82
353.65	1.76
354.011	1.77
354.372	1.73
354.734	1.73
355.095	1.78
355.456	1.84
355.817	1.76
356.179	1.81
356.54	1.77
356.901	1.79
357.262	1.76
357.623	1.68
357.984	1.72
358.345	1.83
358.705	1.92
359.066	1.85
359.427	1.91
359.788	1.81
360.148	1.76
360.509	1.79
360.87	1.71
361.23	1.72
361.591	1.68
361.951	1.81
362.312	1.91
362.672	1.98
363.032	2.03
363.393	2
363.753	1.97
364.113	2.01
364.473	2.01
364.833	2.02
365.193	1.96
365.553	1.99
365.913	1.99
366.273	1.98
366.633	1.94
366.993	1.98
367.353	1.93
367.713	1.83
368.072	1.89
368.432	1.69
368.792	1.71
369.151	1.72
369.511	1.73
369.87	1.66
370.23	1.61
370.589	1.7
370.949	1.61
371.308	1.53
371.667	1.51
372.027	1.54
372.386	1.62
372.745	1.64
373.104	1.53
373.463	1.51
373.822	1.48
374.181	1.47
374.54	1.48
374.899	1.55
375.258	1.63
375.617	1.76
375.975	1.78
376.334	1.79
376.693	1.86
377.052	1.88
377.41	2.11
377.769	2.09
378.127	2.18
378.486	2.21
378.844	2.36
379.202	2.4
379.561	2.31
379.919	2.24
380.277	2.18
380.636	2.24
380.994	2.21
381.352	2.17
381.71	2.21
382.068	2.23
382.426	2.14
382.784	2.3
383.142	2.34
383.5	2.39
383.857	2.38
384.215	2.36
384.573	2.32
384.931	2.21
385.288	2.22
385.646	2.2
386.003	2.27
386.361	2.21
386.718	2.21
387.076	2.13
387.433	2.04
387.791	1.99
388.148	1.99
388.505	2.07
388.862	2.11
389.22	2.22
389.577	2.13
389.934	2.11
390.291	2.18
390.648	2.21
391.005	2.35
391.362	2.5
391.718	2.44
392.075	2.53
392.432	2.57
392.789	2.61
393.145	2.68
393.502	2.8
393.859	2.86
394.215	2.89
394.572	2.96
394.928	2.98
395.285	3.05
395.641	3.21
395.997	3.32
396.354	3.49
396.71	3.65
397.066	3.71
397.422	3.89
397.778	4.13
398.134	4.2
398.491	4.42
398.846	4.55
399.202	4.82
399.558	4.99
399.914	5.1
400.27	5.18
400.626	5.38
400.981	5.53
401.337	5.72
401.693	5.94
402.048	6.21
402.404	6.39
402.759	6.74
403.115	7.04
403.47	7.29
403.826	7.58
404.181	7.8
404.536	8.14
404.892	8.44
405.247	8.78
405.602	9.03
405.957	9.44
406.312	9.8
406.667	10.06
407.022	10.37
407.377	10.79
407.732	11.25
408.087	11.55
408.442	12
408.796	12.36
409.151	12.79
409.506	13.18
409.86	13.64
410.215	14.06
410.57	14.57
410.924	14.98
411.279	15.47
411.633	15.93
411.987	16.4
412.342	16.93
412.696	17.45
413.05	18.04
413.404	18.49
413.758	19.16
414.113	19.75
414.467	20.23
414.821	20.74
415.175	21.32
415.529	21.91
415.882	22.51
416.236	22.94
416.59	23.45
416.944	24.03
417.298	24.42
417.651	24.91
418.005	25.38
418.358	26.02
418.712	26.53
419.065	27.1
419.419	27.52
419.772	27.94
420.126	28.36
420.479	28.76
420.832	29.31
421.185	29.52
421.539	29.88
421.892	30.19
422.245	30.56
422.598	30.88
422.951	31.16
423.304	31.55
423.657	31.98
424.01	32.21
424.363	32.6
424.715	33.1
425.068	33.52
425.421	33.96
425.773	34.24
426.126	34.71
426.479	35.23
426.831	35.63
427.184	35.82
427.536	36.13
427.889	36.44
428.241	36.73
428.593	37.02
428.945	37.45
429.298	37.82
429.65	38.03
430.002	38.6
430.354	38.85
430.706	39.23
431.058	39.46
431.41	39.77
431.762	40.07
432.114	40.48
432.466	40.68
432.817	41
433.169	41.27
433.521	41.48
433.872	41.67
434.224	41.86
434.576	42.16
434.927	42.32
435.279	42.37
435.63	42.63
435.981	42.89
436.333	43.18
436.684	43.36
437.035	43.42
437.387	43.52
437.738	43.51
438.089	43.56
438.44	43.76
438.791	43.82
439.142	43.92
439.493	44.1
439.844	44.29
440.195	44.46
440.545	44.66
440.896	44.67
441.247	44.84
441.598	44.78
441.948	44.77
442.299	44.85
442.649	45
443	45.05
443.35	45.11
443.701	45.21
444.051	45.38
444.401	45.35
444.752	45.3
445.102	45.33
445.452	45.26
445.802	45.55
446.152	45.81
446.502	46
446.852	46.09
447.202	46.09
447.552	46.26
447.902	46.31
448.252	46.35
448.602	46.38
448.952	46.32
449.301	46.19
449.651	46.25
450.001	46.19
450.35	46.31
450.7	46.32
451.049	46.42
451.399	46.47
451.748	46.5
452.097	46.52
452.447	46.45
452.796	46.4
453.145	46.46
453.494	46.46
453.843	46.31
454.193	46.45
454.542	46.34
454.891	46.28
455.239	46.21
455.588	46.07
455.937	46.06
456.286	45.87
456.635	45.92
456.984	45.83
457.332	45.78
457.681	45.83
458.03	45.84
458.378	45.75
458.727	45.86
459.075	45.87
459.423	45.84
459.772	45.6
460.12	45.42
460.468	45.27
460.817	45
461.165	45
461.513	44.97
461.861	44.87
462.209	44.86
462.557	44.86
462.905	44.74
463.253	44.67
463.601	44.53
463.949	44.41
464.297	44.45
464.644	44.18
464.992	44.06
465.34	44.09
465.687	43.95
466.035	43.78
466.383	43.76
466.73	43.76
467.078	43.78
467.425	43.54
467.772	43.5
468.12	43.53
468.467	43.46
468.814	43.67
469.161	43.67
469.508	43.78
469.856	43.6
470.203	43.51
470.55	43.37
470.897	43.26
471.243	43.29
471.59	43.15
471.937	43.15
472.284	43.1
472.631	42.94
472.977	42.76
473.324	42.72
473.671	42.56
474.017	42.31
474.364	42.23
474.71	42.2
475.057	41.96
475.403	41.83
475.749	41.78
476.096	41.84
476.442	41.7
476.788	41.54
477.134	41.44
477.48	41.13
477.826	41.05
478.172	40.94
478.518	40.94
478.864	40.76
479.21	40.66
479.556	40.36
479.902	40.13
480.248	39.95
480.593	39.74
480.939	39.59
481.285	39.41
481.63	39.45
481.976	39.4
482.321	39.35
482.667	39.25
483.012	39.17
483.357	39.15
483.703	39.02
484.048	38.95
484.393	38.69
484.738	38.54
485.084	38.41
485.429	38.37
485.774	38.29
486.119	38.24
486.464	38
486.808	37.82
487.153	37.6
487.498	37.42
487.843	37.32
488.188	37.32
488.532	37.17
488.877	37.01
489.222	36.82
489.566	36.63
489.911	36.72
490.255	36.49
490.6	36.3
490.944	36.13
491.288	35.99
491.633	35.88
491.977	35.58
492.321	35.42
492.665	35.15
493.009	34.99
493.353	34.75
493.697	34.66
494.041	34.44
494.385	34.23
494.729	34.01
495.073	33.91
495.417	33.78
495.76	33.66
496.104	33.51
496.448	33.33
496.791	33.18
497.135	33.01
497.479	32.87
497.822	32.75
498.165	32.56
498.509	32.28
498.852	32.04
499.196	31.89
499.539	31.82
499.882	31.65
500.225	31.39
500.568	31.24
500.911	31.08
501.254	31.02
501.597	30.95
501.94	30.89
502.283	30.7
502.626	30.52
502.969	30.45
503.312	30.32
503.654	30.31
503.997	30.14
504.34	30.02
504.682	29.92
505.025	29.93
505.367	29.82
505.71	29.67
506.052	29.57
506.395	29.51
506.737	29.47
507.079	29.32
507.421	29.2
507.764	29.07
508.106	28.92
508.448	28.75
508.79	28.65
509.132	28.65
509.474	28.62
509.816	28.41
510.158	28.37
510.499	28.27
510.841	28.12
511.183	28.04
511.525	27.83
511.866	27.84
512.208	27.58
512.549	27.47
512.891	27.34
513.232	27.28
513.574	27.06
513.915	26.86
514.256	26.79
514.598	26.72
514.939	26.54
515.28	26.35
515.621	26.27
515.962	26.26
516.303	26.1
516.644	25.98
516.985	26.02
517.326	25.96
517.667	25.71
518.008	25.58
518.349	25.59
518.69	25.44
519.03	25.22
519.371	25.22
519.712	25.15
520.052	25.11
520.393	24.97
520.733	24.97
521.074	24.93
521.414	24.81
521.754	24.73
522.095	24.56
522.435	24.6
522.775	24.5
523.115	24.37
523.455	24.23
523.795	24.19
524.135	24.09
524.475	23.97
524.815	23.96
525.155	23.85
525.495	23.67
525.835	23.69
526.175	23.69
526.514	23.59
526.854	23.54
527.194	23.42
527.533	23.4
527.873	23.31
528.212	23.13
528.552	23.15
528.891	23.05
529.23	22.98
529.57	22.81
529.909	22.76
530.248	22.69
530.587	22.73
530.927	22.59
531.266	22.54
531.605	22.46
531.944	22.49
532.283	22.45
532.621	22.43
532.96	22.4
533.299	22.31
533.638	22.34
533.977	22.24
534.315	22.04
534.654	21.96
534.992	21.85
535.331	21.7
535.67	21.51
536.008	21.51
536.346	21.32
536.685	21.33
537.023	21.2
537.361	21.09
537.7	20.96
538.038	20.93
538.376	20.8
538.714	20.69
539.052	20.47
539.39	20.52
539.728	20.55
540.066	20.37
540.404	20.26
540.741	20.19
541.079	19.97
541.417	19.99
541.755	19.92
542.092	19.79
542.43	19.87
542.767	19.76
543.105	19.84
543.442	19.7
543.78	19.69
544.117	19.68
544.454	19.51
544.792	19.51
545.129	19.58
545.466	19.51
545.803	19.47
546.14	19.55
546.477	19.39
546.814	19.5
547.151	19.52
547.488	19.57
547.825	19.43
548.162	19.35
548.499	19.51
548.835	19.48
549.172	19.5
549.509	19.57
549.845	19.44
550.182	19.4
550.518	19.39
550.855	19.28
551.191	19.42
551.528	19.34
551.864	19.51
552.2	19.52
552.537	19.59
552.873	19.62
553.209	19.48
553.545	19.37
553.881	19.34
554.217	19.32
554.553	19.23
554.889	19.38
555.225	19.25
555.561	19.21
555.896	19.22
556.232	19.13
556.568	19.24
556.903	19.18
557.239	19.37
557.575	19.41
557.91	19.39
558.245	19.37
558.581	19.66
558.916	19.68
559.252	19.83
559.587	19.75
559.922	19.82
560.257	19.77
560.592	19.84
560.928	19.78
561.263	19.83
561.598	20.04
561.933	20.05
562.267	20.17
562.602	20.2
562.937	20.13
563.272	20.15
563.607	20.26
563.941	20.41
564.276	20.48
564.611	20.52
564.945	20.44
565.28	20.41
565.614	20.28
565.949	20.27
566.283	20.45
566.617	20.49
566.951	20.38
567.286	20.35
567.62	20.15
567.954	20.18
568.288	20.14
568.622	20.12
568.956	20.08
569.29	20.17
569.624	20.15
569.958	20.15
570.292	20.15
570.626	20.09
570.959	20.07
571.293	20.07
571.627	20.12
571.96	20.19
572.294	20.17
572.627	20.27
572.961	20.34
573.294	20.29
573.627	20.41
573.961	20.47
574.294	20.45
574.627	20.35
574.961	20.39
575.294	20.35
575.627	20.31
575.96	20.39
576.293	20.42
576.626	20.43
576.959	20.53
577.292	20.59
577.624	20.64
577.957	20.65
578.29	20.64
578.623	20.81
578.955	20.89
579.288	20.96
579.62	21.09
579.953	21.16
580.285	21.18
580.618	21.28
580.95	21.21
581.282	21.27
581.615	21.41
581.947	21.43
582.279	21.4
582.611	21.53
582.943	21.65
583.275	21.7
583.607	21.8
583.939	22
584.271	22.12
584.603	22.25
584.935	22.38
585.267	22.37
585.598	22.46
585.93	22.52
586.262	22.74
586.593	22.91
586.925	22.83
587.256	23.02
587.588	23.01
587.919	23.03
588.25	23
588.582	22.96
588.913	23.01
589.244	23.21
589.575	23.37
589.907	23.41
590.238	23.42
590.569	23.52
590.9	23.57
591.231	23.64
591.562	23.81
591.892	23.92
592.223	23.97
592.554	24.04
592.885	24.1
593.215	24.26
593.546	24.33
593.877	24.3
594.207	24.37
594.538	24.46
594.868	24.58
595.198	24.75
595.529	24.66
595.859	24.81
596.189	24.88
596.52	24.98
596.85	25.09
597.18	25.17
597.51	25.22
597.84	25.27
598.17	25.45
598.5	25.7
598.83	25.97
599.16	26.09
599.489	26.15
599.819	26.32
600.149	26.49
600.479	26.74
600.808	26.98
601.138	27.13
601.467	27.18
601.797	27.43
602.126	27.82
602.456	28.1
602.785	28.17
603.114	28.36
603.443	28.55
603.773	28.89
604.102	29.13
604.431	29.52
604.76	29.84
605.089	30.18
605.418	30.37
605.747	30.5
606.076	30.66
606.405	30.81
606.733	30.97
607.062	31.07
607.391	31.33
607.72	31.82
608.048	31.99
608.377	32.23
608.705	32.61
609.034	32.9
609.362	33.4
609.69	33.87
610.019	34.18
610.347	34.25
610.675	34.39
611.004	34.64
611.332	34.9
611.66	35.21
611.988	35.33
612.316	35.48
612.644	35.48
612.972	35.65
613.3	35.81
613.627	36.01
613.955	36.61
614.283	37
614.611	37.23
614.938	37.33
615.266	37.66
615.593	37.99
615.921	38.14
616.248	38.46
616.576	38.8
616.903	39.01
617.23	39.28
617.558	39.42
617.885	39.59
618.212	40.03
618.539	40.42
618.866	40.7
619.193	41.2
619.52	41.33
619.847	41.45
620.174	41.9
620.501	42.35
620.828	42.69
621.155	42.94
621.481	42.95
621.808	43.3
622.135	43.06
622.461	43.15
622.788	43.06
623.114	43.55
623.441	43.64
623.767	43.82
624.093	43.83
624.42	44.33
624.746	44.67
625.072	44.83
625.398	45.04
625.725	45.38
626.051	45.34
626.377	45.41
626.703	45.53
627.029	45.83
627.354	45.72
627.68	46.14
628.006	46.2
628.332	46.45
628.658	46.94
628.983	47.52
629.309	47.84
629.634	48.68
629.96	48.89
630.285	49.63
630.611	49.94
630.936	50.79
631.262	50.72
631.587	51.01
631.912	50.91
632.237	51.6
632.562	51.58
632.887	51.25
633.213	51.21
633.538	52.37
633.863	52.92
634.187	53.34
634.512	53.27
634.837	53.88
635.162	53.85
635.487	54.2
635.811	53.95
636.136	54.74
636.461	54.64
636.785	54.83
637.11	54.47
637.434	54.45
637.758	54.67
638.083	54.93
638.407	54.88
638.731	54.95
639.056	55.26
639.38	55.48
639.704	55.76
640.028	55.96
640.352	55.78
640.676	55.04
641	56.02
641.324	55.75
641.648	54.73
641.972	54.42
642.295	54.97
642.619	55.07
642.943	54.05
643.266	53.78
643.59	54.07
643.913	54.44
644.237	54.31
644.56	54.38
644.884	54.55
645.207	54.84
645.53	54.8
645.854	54.57
646.177	54.35
646.5	54.63
646.823	54.64
647.146	54.75
647.469	55.02
647.792	55.06
648.115	55.21
648.438	55.35
648.761	56.87
649.084	57.39
649.406	57.46
649.729	57.43
650.052	57.48
650.374	57.66
650.697	57.93
651.019	58.21
651.342	58.46
651.664	58.46
651.987	58.48
652.309	58.44
652.631	58.71
652.953	58.69
653.276	58.77
653.598	59.06
653.92	58.96
654.242	59.34
654.564	59.38
654.886	59.3
655.208	58.99
655.53	58.85
655.851	58.96
656.173	58.92
656.495	59.09
656.816	58.95
657.138	58.96
657.46	59.81
657.781	61.61
658.103	62.4
658.424	62.47
658.746	62.51
659.067	62.8
659.388	62.41
659.709	62.32
660.031	61.95
660.352	62.05
660.673	62.27
660.994	61.76
661.315	61.47
661.636	60.55
661.957	61.79
662.278	61.19
662.599	60.77
662.919	62.1
663.24	63.11
663.561	63.9
663.881	63.5
664.202	64.71
664.523	63.69
664.843	62.99
665.164	62.96
665.484	62.68
665.804	61.87
666.125	62.26
666.445	62.6
666.765	62.74
667.085	62.66
667.405	63.07
667.726	62.98
668.046	63.41
668.366	63.92
668.686	63.56
669.005	64.16
669.325	64.61
669.645	65.03
669.965	63.89
670.285	63.39
670.604	63.19
670.924	62.03
671.243	62.27
671.563	61.51
671.882	61.51
672.202	61.25
672.521	61.98
672.841	62.63
673.16	62.6
673.479	62.24
673.798	61.75
674.117	61.73
674.437	60.99
674.756	61.09
675.075	61.34
675.394	61.82
675.713	62.71
676.031	63.16
676.35	62.67
676.669	62.23
676.988	61.32
677.306	61.07
677.625	60.99
677.944	62.04
678.262	62.13
678.581	62.89
678.899	64.21
679.218	64.33
679.536	65.21
679.854	65.48
680.172	65.68
680.491	65.54
680.809	65.6
681.127	65.9
681.445	66.08
681.763	66.79
682.081	66.01
682.399	66.34
682.717	65.87
683.035	65.98
683.352	65.68
683.67	64.76
683.988	64.27
684.306	65.21
684.623	65.27
684.941	65.89
685.258	65.91
685.576	66.28
685.893	66.27
686.211	66.94
686.528	66.84
686.845	65.6
687.162	65.21
687.48	65.01
687.797	65.97
688.114	65.59
688.431	64.91
688.748	64.12
689.065	62.83
689.382	63.5
689.699	63.69
690.015	64.33
690.332	64.12
690.649	65.19
690.966	65.12
691.282	65.23
691.599	65.41
691.915	65.74
692.232	65.66
692.548	65.76
692.865	66.57
693.181	66.83
693.497	66.51
693.813	65.15
694.13	64.57
694.446	64.15
694.762	64.85
695.078	64.52
695.394	65.42
695.71	63.87
696.026	64.17
696.342	64.47
696.658	64.55
696.973	65.3
697.289	64.74
697.605	64.16
697.92	62.76
698.236	63.2
698.551	61.76
698.867	61.98
699.182	62.57
699.498	62.33
699.813	61.94
700.128	61.53
700.444	60.95
700.759	59.95
701.074	59.57
701.389	59.62
701.704	60.12
702.019	59.76
702.334	60.35
702.649	59.79
702.964	60.95
703.279	60.65
703.594	60.56
703.908	60.13
704.223	60.62
704.538	61.68
704.852	62.09
705.167	61.92
705.481	62.29
705.796	63.93
706.11	63.86
706.425	64.29
706.739	63.9
707.053	62.89
707.368	64.35
707.682	64.12
707.996	62.51
708.31	62.46
708.624	62.8
708.938	63.89
709.252	63.91
709.566	64.11
709.88	64.79
710.193	64.22
710.507	64.07
710.821	63.24
711.135	61.91
711.448	62.94
711.762	62.84
712.075	62.5
712.389	60.93
712.702	60.46
713.015	61.35
713.329	61.13
713.642	61.34
713.955	61.33
714.269	61.75
714.582	61.5
714.895	61.2
715.208	60.44
715.521	61.23
715.834	63.47
716.147	63.19
716.459	63.56
716.772	61.22
717.085	61.6
717.398	62.62
717.71	62.29
718.023	61.84
718.336	61.37
718.648	60.05
718.961	60.86
719.273	61.68
719.585	64.41
719.898	64.49
720.21	67.69
720.522	68.48
720.834	67.41
721.147	67.47
721.459	66.55
721.771	66.06
722.083	64.44
722.395	65.25
722.707	65.92
723.019	65.17
723.33	64.34
723.642	64.2
723.954	65.08
724.265	65.5
724.577	68.45
724.889	67.91
725.2	67.18
725.512	67.41
725.823	69.16
726.135	68.83
726.446	70.13
726.757	69.44
727.068	67.83
727.38	65.3
727.691	64.33
728.002	62.45
728.313	61.75
728.624	62.2
728.935	62.13
729.246	61.97
729.557	62.11
729.867	63.39
730.178	63.63
730.489	63.87
730.8	63.55
731.11	64.06
731.421	62.58
731.731	62.78
732.042	61.87
732.352	60.05
732.663	60.58
732.973	60.66
733.283	60.15
733.594	58.44
733.904	58.83
734.214	59.39
734.524	60.32
734.834	60.76
735.144	62.47
735.454	63.14
735.764	65.27
736.074	65.81
736.384	65.34
736.694	66.13
737.003	66.92
737.313	67.78
737.623	67.55
737.932	66.57
738.242	66.92
738.551	67.33
738.861	65.58
739.17	67.69
739.479	67.48
739.789	66.62
740.098	65.69
740.407	65.9
740.716	66.07
741.025	66.23
741.334	67.77
741.643	68.74
741.952	66.83
742.261	64.73
742.57	63.72
742.879	60.55
743.188	62.29
743.497	59.87
743.805	58.8
744.114	58.03
744.422	58.29
744.731	59.81
745.04	57.56
745.348	57.44
745.656	58.69
745.965	56.13
746.273	59.49
746.581	63.24
746.889	61.25
747.198	60.54
747.506	61.49
747.814	63.01
748.122	61.75
748.43	60.75
748.738	56.51
749.046	54.96
749.353	55.26
749.661	55.41
749.969	56.7
750.277	57.9
750.584	56.65
750.892	58.26
751.199	57.43
751.507	56.32
751.814	57.72
752.122	57.06
752.429	56.18
752.736	59.33
753.044	59.06
753.351	58.04
753.658	58.97
753.965	56.84
754.272	55.59
754.579	56.45
754.886	59.04
755.193	58.92
755.5	59.99
755.807	59.49
756.114	58.63
756.42	60.45
756.727	63.61
757.034	63.99
757.34	63.75
757.647	64.39
757.953	62.71
758.26	64.27
758.566	62.24
758.872	61.7
759.179	65.51
759.485	67.47
759.791	67.61
760.097	66.12
760.403	64.41
760.709	64.56
761.015	63.96
761.321	64.78
761.627	64.66
761.933	63.35
762.239	61.85
762.545	59.18
762.851	58.56
763.156	56.77
763.462	60.07
763.767	62.52
764.073	64.97
764.378	63.21
764.684	65.68
764.989	72.34
765.295	69.56
765.6	72.09
765.905	74.03
766.21	75.24
766.515	76.22
766.821	76.63
767.126	71.3
767.431	72.61
767.736	75.55
768.041	71.21
768.345	71.72
768.65	73.72
768.955	76.83
769.26	77.66
769.564	76.8
769.869	74.67
770.174	73.56
770.478	76.85
770.783	76.7
771.087	75.06
771.391	75.75
771.696	74.41
772	72.02
772.304	72.14
772.608	62.21
772.913	65.79
773.217	68.69
773.521	67.65
773.825	65.65
774.129	68.96
774.433	67.83
774.736	67.3
775.04	66.05
775.344	65.81
775.648	70.11
775.951	69.92
776.255	67.38
776.559	62.79
776.862	65.78
777.166	71.28
777.469	72.58
777.772	75.43
778.076	76.75
778.379	75.39
778.682	74.44
778.985	75.64
779.289	77.06
779.592	77.21
779.895	70.29
780.198	77.18
780.501	76.27
780.804	74.12
781.106	67.73
781.409	71.5
781.712	69.37
782.015	66.03
782.317	73.39
782.62	72.23
782.923	75.97
783.225	73.81
783.527	76
783.83	80.14
784.132	83.25
784.435	80.17
784.737	76.2
785.039	79.31
785.341	77.16
785.643	72.46
785.945	80.24
786.248	78.89
786.55	78.93
786.851	81.2
787.153	82.86
787.455	81.92
787.757	78.17
788.059	81.59
788.36	79.28
788.662	91.92
788.964	91.85
789.265	85.97
789.567	90.08
789.868	79.56
790.17	79.32
790.471	71.88
790.772	70.45
791.074	65.97
791.375	65.57
791.676	60.18
791.977	57.41
792.278	58.32
792.579	58.64
792.88	57.9
793.181	56.91
793.482	52.44
793.783	56.24
794.083	48.91
794.384	46.99
794.685	42.52
794.986	49.14
795.286	43.55
795.587	37.64
795.887	31.4
796.188	24.43
796.488	16.06
796.788	19.22
797.089	17.73
797.389	15.37
797.689	18.44
797.989	22.78
798.289	29.71
798.589	33.91
798.889	24.6
799.189	25.28
799.489	24.05
799.789	17.35
800.089	15.17
800.389	20.91
800.688	26.47
800.988	25.32
801.288	22.5
801.587	26.55
801.887	24.85
802.186	28.92
802.486	18.36
802.785	27.49
803.085	47.45
803.384	73.68
803.683	79.34
803.982	76.21
804.281	66.41
804.58	62.61
804.879	86.89
805.178	104.63
805.477	159.88
805.776	109.1
806.075	92.3
806.374	100.91
806.673	68
806.971	40.3
807.27	106.96
807.569	201.2
807.867	253.28
808.166	368.94
808.464	282.26
808.763	182.51
809.061	74.38
809.359	83.99
809.658	61.7
809.956	57.58
810.254	53.77
810.552	-0.73
810.85	-99.61
811.148	-88.79
811.446	-23.95
811.744	44.61
812.042	39.59
812.34	13.45
812.638	23.63
812.935	11.81
813.233	-9.65
813.531	-39.36
813.828	28.62
814.126	38.63
814.423	80.29
814.721	50.53
815.018	32.94
815.316	23.49
815.613	-40.43
815.91	-11.14
816.207	-3.19
816.504	16.52
816.802	-2.18
817.099	-9.98
817.396	-34.45
817.693	-66.69
817.99	-58.55
818.286	-73.02
818.583	-68.43
818.88	-99.65
819.177	-119.98
819.473	-91.76
819.77	-42.79
820.067	-10.98
820.363	0.2
820.66	-0.23
820.956	2.78
821.252	-1.36
821.549	17.97
821.845	-7.71
822.141	14.88
822.437	-24.93
822.734	-20.32
823.03	0.21
823.326	-16.91
823.622	-25.08
823.918	-6.38
824.213	22.68
824.509	37.82
824.805	47.37
825.101	83.4
825.397	84.8
825.692	87.89
825.988	118.53
826.283	109.37
826.579	116.21
826.874	159.21
827.17	162.79
827.465	157.92
827.76	285.39
828.056	382.58
828.351	197.29
828.646	175.81
828.941	145.28
829.236	233.95
829.531	275.73
829.826	242.05
830.121	217.34
830.416	214.99
830.711	204.08
831.006	149.42
831.3	159.67
831.595	158.25
831.89	140.32
832.184	154.24
832.479	159.43
832.773	160.26
833.068	156.35
833.362	122.76
833.656	153.36
833.951	140.05
834.245	128.86
834.539	118.69
834.833	119.04
835.127	81.6
835.421	75.86
835.715	78.42
836.009	91.17
836.303	107.2
836.597	113.32
836.891	91.95
837.185	108.4
837.478	175.79
837.772	109.1
838.066	103.87
838.359	205.88
838.653	169.45
838.946	109.36
839.24	127.5
839.533	114.04
839.826	94.32
840.119	86.28
840.413	82.71
840.706	144.74
840.999	110.18
841.292	110.64
841.585	97.8
841.878	104.06
842.171	124.77
842.464	123.79
842.757	151.05
843.049	180.13
843.342	125.09
843.635	126.14
843.927	105.7
844.22	110.67
844.513	90.47
844.805	76.58
845.098	72.21
845.39	65.09
845.682	60.07
845.975	57.44
846.267	61.11
846.559	40.17
846.851	39.49
847.143	19.82
847.435	41.92
847.727	34.75
848.019	18.65
848.311	17.41
848.603	12.21
848.895	11.43
849.186	17.05
849.478	15.76
849.77	20.33
850.061	14.45
850.353	22.77
850.645	23.28
850.936	11.35
851.227	17.73
851.519	6.05
851.81	25
852.101	33.56
852.393	45.24
852.684	47.92
852.975	56.43
853.266	56.71
853.557	56.2
853.848	62.08
854.139	61.54
854.43	65.78
854.72	53.29
855.011	57.26
855.302	50.68
855.593	56.19
855.883	66.45
856.174	60.15
856.464	57.39
856.755	56.92
857.045	78.36
857.336	77.06
857.626	74.83
857.916	81.1
858.206	112.6
858.497	165.82
858.787	125.11
859.077	166.75
859.367	164.24
859.657	84.96
859.947	64.75
860.237	43.32
860.527	44.19
860.816	50.38
861.106	54.83
861.396	43.23
861.685	62.46
861.975	62.17
862.265	72.23
862.554	62.96
862.844	63.94
863.133	45.92
863.422	34.77
863.712	10.32
864.001	-12.32
864.29	-42.45
864.579	-44.74
864.868	-36.23
865.157	-28.65
865.446	-12.01
865.735	-13.87
866.024	-5
866.313	-12.61
866.602	-12.9
866.891	-15.33
867.179	-34.18
867.468	-10.57
