Data from T2__Reflection__0__00-14-03-013.txt Node

Date: Fri Jun 04 00:14:03 CEST 2021
User: mabdelazizm
Spectrometer: FLMS18565
Trigger mode: 0
Integration Time (sec): 2.000000E0
Scans to average: 1
Electric dark correction enabled: true
Nonlinearity correction enabled: false
Boxcar width: 12
XAxis mode: Wavelengths
Number of Pixels in Spectrum: 2048
>>>>>Begin Spectral Data<<<<<
179.071	-393.72
179.452	-270.89
179.833	-225.55
180.214	-4100
180.595	-175.42
180.977	-369.46
181.358	-2714.29
181.739	903.03
182.12	184.2
182.501	146.24
182.882	70.28
183.262	56.8
183.643	33.68
184.024	-9.62
184.405	-17.54
184.786	-25.49
185.166	-16.36
185.547	-12.55
185.927	-4.19
186.308	3.14
186.689	18.56
187.069	12.71
187.449	13.72
187.83	6.31
188.21	5.97
188.59	9.45
188.971	11.29
189.351	10.87
189.731	10.67
190.111	12.8
190.491	11.14
190.871	13.31
191.251	16.99
191.631	16.71
192.011	16
192.391	16.57
192.771	18.11
193.151	19.2
193.531	19.47
193.91	19.16
194.29	19.17
194.67	21.25
195.049	21.16
195.429	22.61
195.808	24.2
196.188	21.28
196.567	22.62
196.946	23.8
197.326	23.02
197.705	21.22
198.084	20.78
198.464	14.69
198.843	14.1
199.222	13.53
199.601	11.07
199.98	10.55
200.359	12.11
200.738	13.59
201.117	15.99
201.496	14.36
201.875	15.22
202.254	15.05
202.632	12.07
203.011	14.3
203.39	12.75
203.768	12.82
204.147	12.4
204.525	8.93
204.904	7.44
205.282	5
205.661	4.1
206.039	1.2
206.418	1.78
206.796	4.06
207.174	8.19
207.552	7.85
207.931	6.92
208.309	7.94
208.687	6.87
209.065	7.68
209.443	8.53
209.821	7.68
210.199	5.6
210.577	4.14
210.954	4.22
211.332	3.61
211.71	2.4
212.088	4.98
212.465	5.1
212.843	7.15
213.221	5.23
213.598	3.46
213.976	4.57
214.353	4.75
214.731	3.37
215.108	4.78
215.485	7.47
215.863	5.13
216.24	3.65
216.617	1.46
216.994	1.86
217.371	3.87
217.749	4.1
218.126	2.93
218.503	3.38
218.88	2.83
219.256	1.78
219.633	1.35
220.01	0.05
220.387	1
220.764	2.87
221.14	4.02
221.517	4.46
221.894	3.33
222.27	3.16
222.647	3.76
223.023	3.67
223.4	4.92
223.776	4.51
224.153	6.06
224.529	5.7
224.905	4.82
225.282	5.16
225.658	5.5
226.034	5.24
226.41	4.74
226.786	4.95
227.162	5.15
227.538	5.38
227.914	4.96
228.29	4.86
228.666	4.62
229.042	4.19
229.418	4.52
229.793	4.36
230.169	3.91
230.545	3.8
230.92	3.66
231.296	3.91
231.672	3.7
232.047	3.76
232.422	3.89
232.798	3.55
233.173	3.63
233.549	3.5
233.924	3.51
234.299	3.72
234.674	3.62
235.05	3.71
235.425	3.62
235.8	3.46
236.175	3.44
236.55	3.28
236.925	3.28
237.3	3.13
237.675	3.12
238.049	3.09
238.424	3.2
238.799	3.16
239.174	3.18
239.548	3.23
239.923	2.98
240.297	2.98
240.672	3.04
241.046	3.07
241.421	2.96
241.795	2.8
242.17	2.82
242.544	2.69
242.918	2.7
243.293	2.66
243.667	2.65
244.041	2.68
244.415	2.58
244.789	2.59
245.163	2.74
245.537	2.72
245.911	2.75
246.285	2.72
246.659	2.75
247.033	2.69
247.406	2.85
247.78	2.89
248.154	2.76
248.528	2.74
248.901	2.79
249.275	2.88
249.648	2.91
250.022	2.92
250.395	2.9
250.769	2.98
251.142	3.06
251.515	3.1
251.888	3.15
252.262	3.2
252.635	3.19
253.008	3.18
253.381	3.11
253.754	3.06
254.127	3.1
254.5	3.04
254.873	2.99
255.246	2.96
255.619	3.07
255.992	3.12
256.364	3.11
256.737	2.99
257.11	2.89
257.483	2.88
257.855	2.84
258.228	2.71
258.6	2.75
258.973	2.61
259.345	2.49
259.718	2.5
260.09	2.43
260.462	2.35
260.834	2.31
261.207	2.25
261.579	2.2
261.951	2.22
262.323	2.1
262.695	2.11
263.067	2.17
263.439	2.09
263.811	2.14
264.183	2.1
264.555	2.09
264.927	2.03
265.298	2.01
265.67	2.01
266.042	1.96
266.413	1.96
266.785	2.04
267.156	2.09
267.528	2.09
267.899	2.01
268.271	2.09
268.642	2.09
269.013	2.08
269.385	2.07
269.756	2.14
270.127	2.15
270.498	2.18
270.87	2.09
271.241	1.97
271.612	1.98
271.983	1.99
272.354	1.88
272.724	1.9
273.095	1.86
273.466	1.86
273.837	1.84
274.208	1.87
274.578	1.81
274.949	1.75
275.32	1.79
275.69	1.81
276.061	1.82
276.431	1.83
276.802	1.9
277.172	1.95
277.542	1.87
277.913	1.87
278.283	1.86
278.653	1.91
279.023	1.88
279.394	1.83
279.764	1.83
280.134	1.89
280.504	1.96
280.874	1.99
281.244	2
281.614	2.11
281.983	2.06
282.353	2.01
282.723	2.03
283.093	2.03
283.462	1.98
283.832	1.98
284.202	2.06
284.571	2.01
284.941	2.03
285.31	2.08
285.68	2.05
286.049	2.03
286.418	1.91
286.788	1.93
287.157	1.97
287.526	1.97
287.895	1.95
288.264	1.89
288.633	1.86
289.002	1.81
289.371	1.7
289.74	1.65
290.109	1.66
290.478	1.65
290.847	1.57
291.216	1.63
291.585	1.58
291.953	1.6
292.322	1.62
292.691	1.58
293.059	1.65
293.428	1.64
293.796	1.74
294.165	1.73
294.533	1.65
294.901	1.67
295.27	1.63
295.638	1.72
296.006	1.7
296.374	1.65
296.743	1.61
297.111	1.63
297.479	1.63
297.847	1.62
298.215	1.65
298.583	1.64
298.95	1.66
299.318	1.65
299.686	1.59
300.054	1.59
300.422	1.58
300.789	1.63
301.157	1.62
301.525	1.52
301.892	1.53
302.26	1.49
302.627	1.44
302.994	1.32
303.362	1.34
303.729	1.35
304.097	1.24
304.464	1.27
304.831	1.24
305.198	1.24
305.565	1.25
305.932	1.2
306.299	1.17
306.666	1.24
307.033	1.26
307.4	1.23
307.767	1.25
308.134	1.31
308.501	1.23
308.867	1.21
309.234	1.19
309.601	1.18
309.967	1.14
310.334	1.11
310.701	1.15
311.067	1.16
311.433	1.17
311.8	1.16
312.166	1.16
312.533	1.08
312.899	1.06
313.265	1.13
313.631	1.06
313.997	1
314.363	0.94
314.729	0.91
315.096	0.92
315.461	0.89
315.827	0.84
316.193	0.84
316.559	0.82
316.925	0.86
317.291	0.82
317.656	0.89
318.022	0.96
318.388	0.91
318.753	0.9
319.119	0.95
319.484	0.98
319.85	0.94
320.215	1
320.581	0.98
320.946	1.06
321.311	1.1
321.676	1.07
322.042	1.05
322.407	1
322.772	0.9
323.137	0.99
323.502	0.99
323.867	1.04
324.232	1.04
324.597	1.03
324.962	1.02
325.327	1.03
325.691	1.1
326.056	1.07
326.421	1
326.785	0.96
327.15	0.97
327.514	1.08
327.879	1.1
328.243	1.03
328.608	1
328.972	1.04
329.337	0.88
329.701	0.88
330.065	0.86
330.429	0.89
330.794	0.87
331.158	0.92
331.522	1.02
331.886	1.1
332.25	1.04
332.614	1.12
332.978	1.11
333.342	1.19
333.705	1.25
334.069	1.25
334.433	1.19
334.797	1.16
335.16	1.18
335.524	1.22
335.887	1.16
336.251	1.09
336.614	1.07
336.978	1.09
337.341	1.07
337.705	1.06
338.068	1.05
338.431	1.12
338.794	0.97
339.158	0.9
339.521	0.84
339.884	0.9
340.247	0.84
340.61	0.81
340.973	0.82
341.336	0.89
341.699	0.89
342.062	0.81
342.424	0.73
342.787	0.69
343.15	0.66
343.512	0.75
343.875	0.74
344.238	0.69
344.6	0.7
344.963	0.77
345.325	0.75
345.688	0.77
346.05	0.69
346.412	0.66
346.775	0.64
347.137	0.68
347.499	0.74
347.861	0.89
348.223	0.98
348.585	1.01
348.947	0.98
349.309	0.92
349.671	0.78
350.033	0.8
350.395	0.76
350.757	0.8
351.118	0.83
351.48	0.83
351.842	0.85
352.203	0.89
352.565	0.74
352.927	0.71
353.288	0.81
353.65	0.78
354.011	0.76
354.372	0.77
354.734	0.72
355.095	0.78
355.456	0.86
355.817	0.9
356.179	0.86
356.54	0.8
356.901	0.8
357.262	0.73
357.623	0.68
357.984	0.69
358.345	0.77
358.705	0.85
359.066	0.86
359.427	0.88
359.788	0.84
360.148	0.86
360.509	0.85
360.87	0.74
361.23	0.75
361.591	0.81
361.951	0.89
362.312	0.91
362.672	0.94
363.032	0.88
363.393	0.78
363.753	0.8
364.113	0.79
364.473	0.84
364.833	0.77
365.193	0.76
365.553	0.69
365.913	0.62
366.273	0.59
366.633	0.66
366.993	0.76
367.353	0.71
367.713	0.71
368.072	0.76
368.432	0.63
368.792	0.62
369.151	0.58
369.511	0.61
369.87	0.65
370.23	0.59
370.589	0.61
370.949	0.57
371.308	0.52
371.667	0.5
372.027	0.48
372.386	0.64
372.745	0.6
373.104	0.54
373.463	0.51
373.822	0.55
374.181	0.51
374.54	0.59
374.899	0.63
375.258	0.67
375.617	0.71
375.975	0.67
376.334	0.73
376.693	0.75
377.052	0.71
377.41	0.87
377.769	0.85
378.127	0.9
378.486	0.94
378.844	1.07
379.202	1.13
379.561	1.06
379.919	0.9
380.277	0.89
380.636	0.89
380.994	0.95
381.352	1
381.71	1.02
382.068	1.04
382.426	0.99
382.784	1.09
383.142	1.12
383.5	1.11
383.857	1.17
384.215	1.2
384.573	1.19
384.931	1.14
385.288	1.14
385.646	1.18
386.003	1.18
386.361	1.09
386.718	1.06
387.076	1.06
387.433	0.92
387.791	0.77
388.148	0.75
388.505	0.88
388.862	1.02
389.22	1.07
389.577	1.18
389.934	1.15
390.291	1.15
390.648	1.2
391.005	1.34
391.362	1.4
391.718	1.3
392.075	1.25
392.432	1.29
392.789	1.28
393.145	1.27
393.502	1.31
393.859	1.3
394.215	1.26
394.572	1.29
394.928	1.25
395.285	1.25
395.641	1.35
395.997	1.39
396.354	1.49
396.71	1.68
397.066	1.72
397.422	1.8
397.778	1.86
398.134	1.89
398.491	1.93
398.846	2.02
399.202	2.2
399.558	2.33
399.914	2.28
400.27	2.35
400.626	2.44
400.981	2.65
401.337	2.81
401.693	2.91
402.048	3.05
402.404	3.14
402.759	3.38
403.115	3.51
403.47	3.67
403.826	3.99
404.181	4.25
404.536	4.44
404.892	4.61
405.247	4.92
405.602	5.12
405.957	5.46
406.312	5.66
406.667	5.91
407.022	6.22
407.377	6.48
407.732	6.87
408.087	7.1
408.442	7.44
408.796	7.8
409.151	8.26
409.506	8.68
409.86	9.14
410.215	9.51
410.57	10.04
410.924	10.47
411.279	10.85
411.633	11.35
411.987	12
412.342	12.46
412.696	12.99
413.05	13.52
413.404	14.14
413.758	14.84
414.113	15.44
414.467	15.99
414.821	16.53
415.175	17.23
415.529	17.93
415.882	18.54
416.236	19.21
416.59	19.85
416.944	20.45
417.298	21.09
417.651	21.68
418.005	22.23
418.358	22.91
418.712	23.55
419.065	24.23
419.419	24.8
419.772	25.48
420.126	26.17
420.479	26.71
420.832	27.22
421.185	27.79
421.539	28.24
421.892	28.78
422.245	29.37
422.598	29.87
422.951	30.42
423.304	30.92
423.657	31.4
424.01	31.92
424.363	32.4
424.715	32.94
425.068	33.52
425.421	34.04
425.773	34.5
426.126	34.99
426.479	35.69
426.831	36.2
427.184	36.64
427.536	37.03
427.889	37.62
428.241	38.07
428.593	38.35
428.945	38.86
429.298	39.39
429.65	39.77
430.002	40.22
430.354	40.76
430.706	41.22
431.058	41.56
431.41	41.95
431.762	42.24
432.114	42.56
432.466	43.11
432.817	43.47
433.169	43.87
433.521	44.26
433.872	44.65
434.224	44.95
434.576	45.22
434.927	45.63
435.279	45.89
435.63	46.12
435.981	46.54
436.333	46.96
436.684	47.02
437.035	47.24
437.387	47.47
437.738	47.64
438.089	47.75
438.44	48.08
438.791	48.23
439.142	48.47
439.493	48.75
439.844	48.85
440.195	49.03
440.545	49.34
440.896	49.67
441.247	49.63
441.598	49.74
441.948	50.02
442.299	50.27
442.649	50.34
443	50.53
443.35	50.87
443.701	50.86
444.051	50.92
444.401	51.14
444.752	51.06
445.102	51.04
445.452	51.12
445.802	51.33
446.152	51.62
446.502	51.8
446.852	51.89
447.202	51.89
447.552	52.09
447.902	52.11
448.252	52.15
448.602	51.23
448.952	51.32
449.301	51.22
449.651	51.25
450.001	51.35
450.35	51.54
450.7	51.3
451.049	51.35
451.399	51.29
451.748	51.2
452.097	51.03
452.447	51.09
452.796	51.14
453.145	51.15
453.494	51.25
453.843	51.1
454.193	51.12
454.542	51.11
454.891	50.93
455.239	50.82
455.588	50.77
455.937	50.71
456.286	50.67
456.635	50.62
456.984	50.51
457.332	51.71
457.681	51.66
458.03	51.63
458.378	51.45
458.727	51.51
459.075	51.19
459.423	51.34
459.772	51.14
460.12	51.15
460.468	51.18
460.817	51.19
461.165	50.97
461.513	50.81
461.861	50.82
462.209	50.84
462.557	50.9
462.905	50.9
463.253	50.7
463.601	50.75
463.949	50.76
464.297	50.68
464.644	50.68
464.992	50.52
465.34	50.55
465.687	50.66
466.035	50.56
466.383	50.45
466.73	50.65
467.078	50.57
467.425	50.43
467.772	50.43
468.12	50.29
468.467	50.33
468.814	50.39
469.161	50.2
469.508	50.18
469.856	50.21
470.203	50.14
470.55	49.94
470.897	49.62
471.243	49.55
471.59	49.34
471.937	49.24
472.284	49.22
472.631	49.03
472.977	48.88
473.324	48.72
473.671	48.66
474.017	48.31
474.364	48.1
474.71	47.89
475.057	47.6
475.403	47.22
475.749	47.04
476.096	46.9
476.442	46.78
476.788	46.83
477.134	46.56
477.48	46.4
477.826	46.34
478.172	46.07
478.518	45.95
478.864	45.7
479.21	45.49
479.556	45.25
479.902	45.03
480.248	44.92
480.593	44.71
480.939	44.48
481.285	44.24
481.63	44.16
481.976	43.98
482.321	43.84
482.667	43.86
483.012	43.75
483.357	43.77
483.703	43.63
484.048	43.58
484.393	43.46
484.738	43.33
485.084	43.24
485.429	42.99
485.774	42.93
486.119	42.74
486.464	42.65
486.808	42.55
487.153	42.19
487.498	42.05
487.843	41.94
488.188	41.86
488.532	41.78
488.877	41.58
489.222	41.5
489.566	41.24
489.911	41.21
490.255	41.05
490.6	40.96
490.944	40.67
491.288	40.48
491.633	40.28
491.977	39.96
492.321	39.84
492.665	39.51
493.009	39.39
493.353	39.16
493.697	39.02
494.041	38.83
494.385	38.64
494.729	38.45
495.073	38.19
495.417	38
495.76	37.95
496.104	37.86
496.448	37.72
496.791	37.59
497.135	37.31
497.479	37.09
497.822	36.9
498.165	36.76
498.509	36.51
498.852	36.21
499.196	36
499.539	35.94
499.882	35.72
500.225	35.45
500.568	35.27
500.911	35.23
501.254	35.24
501.597	35.14
501.94	35.03
502.283	34.82
502.626	34.61
502.969	34.36
503.312	34.11
503.654	33.96
503.997	33.73
504.34	33.61
504.682	33.36
505.025	33.14
505.367	33.02
505.71	32.84
506.052	32.72
506.395	32.57
506.737	32.48
507.079	32.26
507.421	32.24
507.764	32.09
508.106	31.91
508.448	31.71
508.79	31.56
509.132	31.36
509.474	31.11
509.816	30.79
510.158	30.53
510.499	30.42
510.841	30.22
511.183	30.09
511.525	30.02
511.866	29.96
512.208	29.77
512.549	29.75
512.891	29.71
513.232	29.59
513.574	29.59
513.915	29.37
514.256	29.25
514.598	29.13
514.939	29.01
515.28	28.8
515.621	28.73
515.962	28.47
516.303	28.35
516.644	28.18
516.985	28
517.326	27.92
517.667	27.9
518.008	27.88
518.349	27.81
518.69	27.72
519.03	27.42
519.371	27.39
519.712	27.28
520.052	27.18
520.393	27.11
520.733	27.06
521.074	26.87
521.414	26.59
521.754	26.51
522.095	26.24
522.435	26.18
522.775	26.1
523.115	26.05
523.455	25.79
523.795	25.72
524.135	25.63
524.475	25.61
524.815	25.45
525.155	25.48
525.495	25.49
525.835	25.35
526.175	25.34
526.514	25.22
526.854	25.09
527.194	25.06
527.533	25.06
527.873	24.99
528.212	24.85
528.552	24.8
528.891	24.63
529.23	24.46
529.57	24.47
529.909	24.42
530.248	24.39
530.587	24.26
530.927	24.14
531.266	24.04
531.605	23.9
531.944	24.01
532.283	23.96
532.621	23.86
532.96	23.86
533.299	23.7
533.638	23.62
533.977	23.51
534.315	23.45
534.654	23.26
534.992	23.2
535.331	23.15
535.67	22.95
536.008	22.96
536.346	22.72
536.685	22.7
537.023	22.57
537.361	22.46
537.7	22.44
538.038	22.39
538.376	22.34
538.714	22.09
539.052	22.11
539.39	22.18
539.728	22.04
540.066	21.94
540.404	21.84
540.741	21.73
541.079	21.62
541.417	21.62
541.755	21.7
542.092	21.44
542.43	21.39
542.767	21.2
543.105	21.16
543.442	21.03
543.78	21.12
544.117	21.08
544.454	20.98
544.792	20.99
545.129	20.89
545.466	20.79
545.803	20.79
546.14	20.79
546.477	20.61
546.814	20.46
547.151	20.59
547.488	20.62
547.825	20.5
548.162	20.53
548.499	20.57
548.835	20.48
549.172	20.37
549.509	20.42
549.845	20.18
550.182	20.03
550.518	20.09
550.855	20.15
551.191	20.36
551.528	20.4
551.864	20.4
552.2	20.32
552.537	20.45
552.873	20.39
553.209	20.38
553.545	20.39
553.881	20.45
554.217	20.49
554.553	20.52
554.889	20.65
555.225	20.82
555.561	20.69
555.896	20.54
556.232	20.59
556.568	20.72
556.903	20.67
557.239	20.65
557.575	20.83
557.91	20.75
558.245	20.96
558.581	21.16
558.916	21.21
559.252	21.17
559.587	21
559.922	21.01
560.257	20.98
560.592	21.02
560.928	20.97
561.263	21.14
561.598	21.21
561.933	21.15
562.267	21.26
562.602	21.22
562.937	21.12
563.272	21.18
563.607	21.08
563.941	21.24
564.276	21.28
564.611	21.23
564.945	21.19
565.28	21.3
565.614	21.38
565.949	21.4
566.283	21.37
566.617	21.29
566.951	21.24
567.286	21.32
567.62	21.32
567.954	21.42
568.288	21.57
568.622	21.63
568.956	21.73
569.29	21.82
569.624	21.83
569.958	21.84
570.292	21.99
570.626	21.98
570.959	22.01
571.293	21.95
571.627	21.99
571.96	22.1
572.294	22.12
572.627	22.2
572.961	22.32
573.294	22.4
573.627	22.47
573.961	22.52
574.294	22.48
574.627	22.61
574.961	22.78
575.294	22.8
575.627	22.69
575.96	22.72
576.293	22.77
576.626	22.71
576.959	22.76
577.292	22.71
577.624	22.68
577.957	22.61
578.29	22.69
578.623	22.71
578.955	22.78
579.288	22.96
579.62	23.14
579.953	23.2
580.285	23.25
580.618	23.33
580.95	23.26
581.282	23.27
581.615	23.26
581.947	23.31
582.279	23.45
582.611	23.6
582.943	23.64
583.275	23.57
583.607	23.68
583.939	23.9
584.271	24.08
584.603	24.16
584.935	24.29
585.267	24.47
585.598	24.61
585.93	24.86
586.262	25.06
586.593	25.12
586.925	25.24
587.256	25.24
587.588	25.27
587.919	25.38
588.25	25.35
588.582	25.48
588.913	25.52
589.244	25.85
589.575	26.08
589.907	26.22
590.238	26.21
590.569	26.18
590.9	26.32
591.231	26.44
591.562	26.62
591.892	26.9
592.223	27.07
592.554	27.16
592.885	27.29
593.215	27.42
593.546	27.5
593.877	27.64
594.207	27.69
594.538	27.84
594.868	28.01
595.198	28.15
595.529	28.42
595.859	28.52
596.189	28.61
596.52	28.94
596.85	28.88
597.18	29.2
597.51	29.33
597.84	29.4
598.17	29.66
598.5	29.88
598.83	30.18
599.16	30.31
599.489	30.49
599.819	30.72
600.149	30.74
600.479	30.96
600.808	31.13
601.138	31.35
601.467	31.6
601.797	31.7
602.126	31.9
602.456	32.21
602.785	32.44
603.114	32.65
603.443	32.87
603.773	33.08
604.102	33.4
604.431	33.73
604.76	33.97
605.089	34.35
605.418	34.43
605.747	34.64
606.076	34.88
606.405	35.11
606.733	35.33
607.062	35.63
607.391	35.78
607.72	36.15
608.048	36.35
608.377	36.78
608.705	37.16
609.034	37.46
609.362	37.75
609.69	37.96
610.019	38.49
610.347	38.82
610.675	38.88
611.004	39.09
611.332	39.48
611.66	39.95
611.988	40.23
612.316	40.34
612.644	40.41
612.972	40.65
613.3	41.13
613.627	41.57
613.955	41.94
614.283	42.32
614.611	42.41
614.938	42.91
615.266	42.91
615.593	43.34
615.921	43.82
616.248	44.19
616.576	44.62
616.903	44.87
617.23	45.34
617.558	46.07
617.885	46.55
618.212	46.82
618.539	47.54
618.866	48.05
619.193	48.29
619.52	48.48
619.847	48.59
620.174	49.02
620.501	49.43
620.828	49.97
621.155	50.21
621.481	50.36
621.808	50.48
622.135	50.53
622.461	50.55
622.788	50.6
623.114	50.63
623.441	50.9
623.767	51.35
624.093	51.28
624.42	51.79
624.746	51.99
625.072	52.35
625.398	52.71
625.725	52.91
626.051	53.11
626.377	53.38
626.703	52.97
627.029	52.82
627.354	53.39
627.68	53.89
628.006	54.23
628.332	54.66
628.658	55.19
628.983	55.37
629.309	55.74
629.634	55.87
629.96	56.36
630.285	57.08
630.611	57.21
630.936	57.99
631.262	58.13
631.587	58.42
631.912	57.95
632.237	58.4
632.562	58.3
632.887	58.27
633.213	58.57
633.538	59.14
633.863	59.31
634.187	59.23
634.512	59.28
634.837	59.51
635.162	60.15
635.487	60.2
635.811	59.57
636.136	59.96
636.461	59.62
636.785	59.66
637.11	59.63
637.434	59.05
637.758	59.49
638.083	59.69
638.407	59.11
638.731	59.5
639.056	59.67
639.38	59.7
639.704	60.66
640.028	61.36
640.352	61.39
640.676	61.07
641	61.69
641.324	61.58
641.648	60.86
641.972	60.83
642.295	61.69
642.619	61.93
642.943	61.9
643.266	61.54
643.59	61.59
643.913	61.5
644.237	61.23
644.56	61.42
644.884	61.94
645.207	62.31
645.53	63.12
645.854	62.67
646.177	62.44
646.5	62.63
646.823	62.89
647.146	62.3
647.469	62.78
647.792	62.7
648.115	62.98
648.438	63.48
648.761	64.38
649.084	64.96
649.406	65.71
649.729	66.37
650.052	66.69
650.374	66.67
650.697	66.86
651.019	66.96
651.342	67.33
651.664	67.44
651.987	67.72
652.309	67.76
652.631	67.99
652.953	67.82
653.276	67.63
653.598	67.81
653.92	67.78
654.242	67.79
654.564	67.87
654.886	67.77
655.208	68.01
655.53	67.73
655.851	67.76
656.173	67.55
656.495	67.64
656.816	67.9
657.138	67.97
657.46	67.9
657.781	68.15
658.103	67.84
658.424	67.67
658.746	67.12
659.067	67.46
659.388	66.13
659.709	65.96
660.031	65.93
660.352	66
660.673	65.77
660.994	65.51
661.315	66.36
661.636	65.54
661.957	66.33
662.278	67.13
662.599	66.98
662.919	67.36
663.24	67.18
663.561	68.33
663.881	67.66
664.202	68.83
664.523	67.68
664.843	67.72
665.164	66.82
665.484	67.21
665.804	66.4
666.125	66.96
666.445	66.95
666.765	67.25
667.085	67.91
667.405	69.66
667.726	70.01
668.046	70.12
668.366	70.04
668.686	69.45
669.005	69.68
669.325	69.58
669.645	69.84
669.965	69.8
670.285	68.91
670.604	69.11
670.924	68.42
671.243	68.71
671.563	68.31
671.882	68.17
672.202	68.19
672.521	68.5
672.841	68.33
673.16	69.04
673.479	68.96
673.798	69.33
674.117	68.7
674.437	68.59
674.756	69.07
675.075	68
675.394	67.34
675.713	66.82
676.031	66.36
676.35	66.17
676.669	66.53
676.988	66.37
677.306	65.49
677.625	65.16
677.944	65.3
678.262	65.77
678.581	65.62
678.899	66.82
679.218	66.73
679.536	67.08
679.854	67.47
680.172	66.53
680.491	66.6
680.809	66.6
681.127	66.92
681.445	66.72
681.763	66.37
682.081	65.87
682.399	66.9
682.717	65.81
683.035	66.52
683.352	66.75
683.67	67.35
683.988	68.43
684.306	68.77
684.623	68.46
684.941	68.59
685.258	69.62
685.576	70.6
685.893	70.18
686.211	70.16
686.528	71.29
686.845	70.21
687.162	70.07
687.48	70.5
687.797	70.13
688.114	70.82
688.431	71.08
688.748	71.29
689.065	71.11
689.382	70.94
689.699	71.57
690.015	72.61
690.332	71.57
690.649	72.1
690.966	70.86
691.282	71.22
691.599	70.97
691.915	70.19
692.232	70.41
692.548	70.48
692.865	71.09
693.181	71.29
693.497	70.36
693.813	70.23
694.13	70.43
694.446	70.47
694.762	71.1
695.078	71.37
695.394	70.41
695.71	70.37
696.026	70.44
696.342	69.73
696.658	69.13
696.973	68.21
697.289	68.3
697.605	68.24
697.92	68.69
698.236	69.22
698.551	69.24
698.867	70.77
699.182	69.81
699.498	69.69
699.813	69.53
700.128	70.07
700.444	71.3
700.759	70.33
701.074	69.38
701.389	69.68
701.704	70.46
702.019	70.82
702.334	69.19
702.649	69.17
702.964	69.78
703.279	70.63
703.594	70.93
703.908	71.14
704.223	71.21
704.538	70.59
704.852	71.92
705.167	72
705.481	70.68
705.796	68.71
706.11	68.47
706.425	68.53
706.739	67.09
707.053	66.51
707.368	67.06
707.682	67.59
707.996	65.87
708.31	65.09
708.624	64.97
708.938	66.33
709.252	66.1
709.566	64.94
709.88	64.69
710.193	65.73
710.507	65.61
710.821	65.2
711.135	64.12
711.448	63.94
711.762	64.68
712.075	64.38
712.389	65.02
712.702	64.62
713.015	66.31
713.329	67.26
713.642	68.44
713.955	68.03
714.269	67.69
714.582	68.76
714.895	70.23
715.208	70.08
715.521	68.91
715.834	71.04
716.147	70.83
716.459	71.15
716.772	68.68
717.085	68.39
717.398	68.68
717.71	69.03
718.023	69.52
718.336	68.55
718.648	67.92
718.961	69.07
719.273	71.22
719.585	72.33
719.898	73.38
720.21	74.36
720.522	75.71
720.834	73.48
721.147	73.24
721.459	73.87
721.771	73.18
722.083	72.66
722.395	73.01
722.707	71.09
723.019	70.63
723.33	72.85
723.642	72.74
723.954	72.22
724.265	73.07
724.577	74.94
724.889	74.7
725.2	75.35
725.512	74.44
725.823	74.69
726.135	75.39
726.446	74.56
726.757	73.12
727.068	71.15
727.38	69.32
727.691	68.9
728.002	68.39
728.313	68.05
728.624	68.87
728.935	69.86
729.246	70.01
729.557	71.17
729.867	72.84
730.178	73.12
730.489	73.67
730.8	73.07
731.11	72.24
731.421	72.5
731.731	73.42
732.042	73.17
732.352	72.58
732.663	72.66
732.973	73.27
733.283	74.73
733.594	73.84
733.904	73.02
734.214	74.73
734.524	76.78
734.834	78.34
735.144	79.76
735.454	80.07
735.764	81.05
736.074	80.69
736.384	80.26
736.694	79.65
737.003	79.64
737.313	79.26
737.623	78.5
737.932	77.31
738.242	78.25
738.551	78.71
738.861	78.35
739.17	77.32
739.479	75.02
739.789	74.91
740.098	75.37
740.407	76.01
740.716	75.09
741.025	71.36
741.334	71.66
741.643	72.91
741.952	72.03
742.261	70.52
742.57	69.55
742.879	67.02
743.188	67.85
743.497	66.44
743.805	65.67
744.114	66.72
744.422	67.68
744.731	66
745.04	66.05
745.348	64.3
745.656	64.96
745.965	64.61
746.273	64.64
746.581	67.03
746.889	66.29
747.198	69.27
747.506	70.4
747.814	70.9
748.122	69.66
748.43	68.72
748.738	68.28
749.046	66.89
749.353	67.81
749.661	68.88
749.969	68.41
750.277	68.63
750.584	67.39
750.892	69.08
751.199	67.3
751.507	67.06
751.814	66.9
752.122	67.14
752.429	67.85
752.736	70.44
753.044	70.46
753.351	68.6
753.658	68.2
753.965	68.31
754.272	67.79
754.579	67.78
754.886	66.85
755.193	66.32
755.5	65.72
755.807	66.23
756.114	64.75
756.42	66.36
756.727	68.72
757.034	68.87
757.34	67.79
757.647	69.08
757.953	68.34
758.26	70.04
758.566	69.25
758.872	71.99
759.179	73.75
759.485	72.96
759.791	71.85
760.097	70.68
760.403	67.75
760.709	68.85
761.015	72.11
761.321	73.42
761.627	74.06
761.933	74.04
762.239	75
762.545	74.63
762.851	73.81
763.156	72.43
763.462	74.08
763.767	79.62
764.073	79.71
764.378	78.5
764.684	78.01
764.989	78.76
765.295	75.73
765.6	74.7
765.905	74.72
766.21	75.51
766.515	73.93
766.821	71.32
767.126	68.45
767.431	68.27
767.736	73.27
768.041	71.3
768.345	71.39
768.65	66.11
768.955	65.21
769.26	64.6
769.564	63.34
769.869	63.63
770.174	64.83
770.478	64.01
770.783	65.45
771.087	65.79
771.391	60.87
771.696	56.96
772	55.92
772.304	52.97
772.608	49.84
772.913	51.35
773.217	52.01
773.521	49.46
773.825	46.91
774.129	45.66
774.433	47.16
774.736	48.77
775.04	47.58
775.344	39.37
775.648	39.94
775.951	42.67
776.255	43.62
776.559	44.35
776.862	48.21
777.166	48.27
777.469	40.18
777.772	39.87
778.076	42.7
778.379	40.03
778.682	39.23
778.985	38.91
779.289	37.24
779.592	37.1
779.895	38.46
780.198	41.09
780.501	38.5
780.804	37.26
781.106	36.22
781.409	35.16
781.712	40.34
782.015	40.85
782.317	40.24
782.62	40.14
782.923	43.33
783.225	43.58
783.527	40.14
783.83	42.48
784.132	41.3
784.435	37.11
784.737	30.33
785.039	36.57
785.341	39.35
785.643	32.8
785.945	38.87
786.248	33.95
786.55	35.17
786.851	33.86
787.153	38.42
787.455	39.71
787.757	32.35
788.059	29.62
788.36	27.61
788.662	30.46
788.964	40.25
789.265	34.84
789.567	35.36
789.868	38.65
790.17	42.75
790.471	47.62
790.772	49.46
791.074	47.21
791.375	48.24
791.676	45.41
791.977	43.67
792.278	48.75
792.579	49.32
792.88	39.38
793.181	37.24
793.482	36.87
793.783	41.08
794.083	39.19
794.384	39.77
794.685	37.12
794.986	39.32
795.286	43.93
795.587	42.93
795.887	40.37
796.188	42.27
796.488	35.79
796.788	34.29
797.089	29.14
797.389	26.71
797.689	21.73
797.989	19.66
798.289	13.08
798.589	12.69
798.889	-3.54
799.189	-11.61
799.489	-23.86
799.789	-28.43
800.089	-25.47
800.389	-11.6
800.688	-1.61
800.988	-2.29
801.288	-13.49
801.587	-26.61
801.887	-21.67
802.186	-22.41
802.486	-28.01
802.785	-45.28
803.085	-43.59
803.384	-16.72
803.683	-25.28
803.982	-21.74
804.281	-64.76
804.58	-69.03
804.879	-79.58
805.178	-134.88
805.477	-347.69
805.776	-230.21
806.075	-200
806.374	-205.81
806.673	-116.96
806.971	-149.42
807.27	-167.83
807.569	-217.7
807.867	-354.16
808.166	-510.23
808.464	-611.09
808.763	-375.17
809.061	-226.54
809.359	-195.37
809.658	-120.24
809.956	-238.45
810.254	-69.87
810.552	-90.64
810.85	-225.07
811.148	-328.17
811.446	-264.13
811.744	-46.59
812.042	-18.05
812.34	-36.25
812.638	-16.01
812.935	-3.19
813.233	-12.21
813.531	-6.41
813.828	36.55
814.126	56.49
814.423	78
814.721	52.47
815.018	64.68
815.316	64.55
815.613	60.67
815.91	84.77
816.207	77.25
816.504	82.01
816.802	71.62
817.099	79.64
817.396	69.19
817.693	21.24
817.99	-11.08
818.286	46.15
818.583	10.9
818.88	21.41
819.177	-105.23
819.473	-62.82
819.77	-17.12
820.067	-33.57
820.363	-22.99
820.66	-23.93
820.956	-25.72
821.252	-48.79
821.549	-42.22
821.845	-38.46
822.141	-14.55
822.437	-53.63
822.734	-70.4
823.03	-57.62
823.326	-93.6
823.622	-112.56
823.918	-119.9
824.213	-118.98
824.509	-91.75
824.805	-105.18
825.101	-94.42
825.397	-76.47
825.692	-59.86
825.988	-45.83
826.283	-49.1
826.579	-16.21
826.874	-33.55
827.17	-6.26
827.465	6.82
827.76	27.53
828.056	53.64
828.351	20.69
828.646	5.11
828.941	-5.93
829.236	7.26
829.531	-75.43
829.826	34.75
830.121	52.76
830.416	32.69
830.711	57.17
831.006	42.48
831.3	39.92
831.595	46.15
831.89	34.29
832.184	40.02
832.479	28.42
832.773	26.29
833.068	22.16
833.362	20.25
833.656	7.24
833.951	-24.28
834.245	-14.87
834.539	-43.72
834.833	-79.64
835.127	-53.33
835.421	-54.74
835.715	-57.15
836.009	-78.12
836.303	-73.14
836.597	-36.92
836.891	-26.1
837.185	-61.25
837.478	-238.45
837.772	-67.34
838.066	-133.64
838.359	-174.9
838.653	-74.23
838.946	-91.26
839.24	-27.5
839.533	-40.5
839.826	-11.28
840.119	-26.07
840.413	-50.61
840.706	-32.31
840.999	-9.14
841.292	8.46
841.585	-8.83
841.878	4.73
842.171	19.04
842.464	6.97
842.757	-2.82
843.049	-37.65
843.342	-20.14
843.635	-16.74
843.927	-45.45
844.22	-28.43
844.513	-24.97
844.805	-24.29
845.098	-20.49
845.39	-14.08
845.682	-41.42
845.975	-53.15
846.267	-47.03
846.559	-86.22
846.851	-26.48
847.143	-42.77
847.435	-45.5
847.727	-45.03
848.019	-47.92
848.311	-37.54
848.603	-43.86
848.895	-33.9
849.186	-34.95
849.478	-34.08
849.77	-11.81
850.061	0.48
850.353	21.03
850.645	14.22
850.936	15.88
851.227	30.55
851.519	24.05
851.81	29.89
852.101	36.24
852.393	47.82
852.684	41.93
852.975	51.77
853.266	55.62
853.557	48.28
853.848	52.17
854.139	36.42
854.43	38.21
854.72	32.32
855.011	35.2
855.302	21.88
855.593	21.4
855.883	19.11
856.174	2.37
856.464	-19.2
856.755	-14.61
857.045	-19.17
857.336	-27.67
857.626	-37.17
857.916	-25.39
858.206	-65.22
858.497	-113.61
858.787	-79.07
859.077	-177.63
859.367	-235.56
859.657	-179.82
859.947	-100.92
860.237	-149.23
860.527	-130.05
860.816	-114.17
861.106	-85.76
861.396	-105.59
861.685	-84.62
861.975	-93.53
862.265	-101.98
862.554	-57.32
862.844	-30.51
863.133	-27.45
863.422	-27.13
863.712	-44.09
864.001	-60.23
864.29	-76.92
864.579	-73.7
864.868	-71.24
865.157	-71.28
865.446	-38.47
865.735	-30.23
866.024	-24.42
866.313	-22.5
866.602	-20.74
866.891	-38.35
867.179	-53.55
867.468	-45.97
