Data from T2_Reflection__72__01-15-54-883.txt Node

Date: Fri Jun 04 01:15:54 CEST 2021
User: mabdelazizm
Spectrometer: FLMS18565
Trigger mode: 0
Integration Time (sec): 2.000000E0
Scans to average: 1
Electric dark correction enabled: true
Nonlinearity correction enabled: false
Boxcar width: 12
XAxis mode: Wavelengths
Number of Pixels in Spectrum: 2048
>>>>>Begin Spectral Data<<<<<
179.071	-163.68
179.452	-208.86
179.833	-159.48
180.214	-2550
180.595	-51.77
180.977	-158.13
181.358	-1867.35
181.739	596.97
182.12	172.67
182.501	126.42
182.882	74.35
183.262	81.07
183.643	65.62
184.024	20.33
184.405	1.03
184.786	23.32
185.166	22.59
185.547	16.2
185.927	27.11
186.308	29.6
186.689	40.23
187.069	38.4
187.449	35.66
187.83	32.52
188.21	33.33
188.59	34.56
188.971	32.54
189.351	34.78
189.731	30.91
190.111	33.84
190.491	32.22
190.871	30.17
191.251	35.3
191.631	36.72
192.011	34.72
192.391	35.46
192.771	38.9
193.151	37.9
193.531	40.63
193.91	41.5
194.29	37.77
194.67	39.23
195.049	42.57
195.429	41.1
195.808	41.93
196.188	38.51
196.567	35.66
196.946	36.41
197.326	35.8
197.705	32.29
198.084	33.03
198.464	33.08
198.843	31.22
199.222	35.34
199.601	34.24
199.98	36.72
200.359	38.05
200.738	36.83
201.117	34.27
201.496	33.9
201.875	33.35
202.254	29.01
202.632	29.73
203.011	31.49
203.39	31.95
203.768	30.68
204.147	29.27
204.525	25.09
204.904	25.29
205.282	24.79
205.661	22.8
206.039	23.51
206.418	23.36
206.796	22.65
207.174	26.38
207.552	28.53
207.931	26.74
208.309	27.07
208.687	27.43
209.065	28.41
209.443	26.27
209.821	25.61
210.199	25.22
210.577	25.81
210.954	26.81
211.332	26.92
211.71	29.35
212.088	27.94
212.465	27.7
212.843	24.44
213.221	23.03
213.598	25.28
213.976	24.84
214.353	25.26
214.731	23.08
215.108	24.1
215.485	22.18
215.863	22.05
216.24	22.1
216.617	20.03
216.994	18.73
217.371	17.81
217.749	17.75
218.126	14.61
218.503	12.4
218.88	11.92
219.256	12.12
219.633	11.85
220.01	9.99
220.387	10.06
220.764	10.11
221.14	8.06
221.517	8.64
221.894	7.99
222.27	9.55
222.647	10.17
223.023	9.22
223.4	9.08
223.776	7.88
224.153	8.36
224.529	7.12
224.905	7.65
225.282	7.61
225.658	8.13
226.034	7.59
226.41	7.08
226.786	6.23
227.162	6.31
227.538	6.46
227.914	6.96
228.29	6.62
228.666	6.19
229.042	5.54
229.418	5.93
229.793	5.48
230.169	5.49
230.545	5.46
230.92	5.25
231.296	4.98
231.672	4.67
232.047	4.32
232.422	4.32
232.798	4.47
233.173	4.46
233.549	4.46
233.924	4.55
234.299	4.47
234.674	4.42
235.05	4.1
235.425	3.87
235.8	3.72
236.175	3.8
236.55	3.37
236.925	3.49
237.3	3.2
237.675	3.35
238.049	3.29
238.424	3.28
238.799	3.15
239.174	3.18
239.548	3.14
239.923	3.05
240.297	3.02
240.672	3.03
241.046	3.11
241.421	3.23
241.795	3.07
242.17	2.99
242.544	2.87
242.918	2.92
243.293	2.87
243.667	2.94
244.041	2.89
244.415	2.86
244.789	2.91
245.163	2.94
245.537	2.94
245.911	3
246.285	2.89
246.659	2.91
247.033	2.77
247.406	2.84
247.78	2.83
248.154	2.77
248.528	2.77
248.901	2.67
249.275	2.7
249.648	2.67
250.022	2.65
250.395	2.57
250.769	2.54
251.142	2.6
251.515	2.58
251.888	2.66
252.262	2.57
252.635	2.63
253.008	2.58
253.381	2.5
253.754	2.52
254.127	2.57
254.5	2.5
254.873	2.48
255.246	2.52
255.619	2.52
255.992	2.52
256.364	2.52
256.737	2.46
257.11	2.46
257.483	2.46
257.855	2.46
258.228	2.56
258.6	2.55
258.973	2.56
259.345	2.54
259.718	2.5
260.09	2.42
260.462	2.35
260.834	2.41
261.207	2.39
261.579	2.4
261.951	2.3
262.323	2.23
262.695	2.26
263.067	2.25
263.439	2.18
263.811	2.25
264.183	2.2
264.555	2.18
264.927	2.22
265.298	2.22
265.67	2.22
266.042	2.18
266.413	2.1
266.785	2.12
267.156	2.14
267.528	1.99
267.899	1.91
268.271	1.91
268.642	1.9
269.013	1.98
269.385	2
269.756	2.01
270.127	1.93
270.498	1.92
270.87	1.87
271.241	1.88
271.612	1.88
271.983	1.85
272.354	1.77
272.724	1.71
273.095	1.76
273.466	1.74
273.837	1.71
274.208	1.67
274.578	1.62
274.949	1.55
275.32	1.58
275.69	1.61
276.061	1.67
276.431	1.6
276.802	1.67
277.172	1.77
277.542	1.62
277.913	1.6
278.283	1.55
278.653	1.52
279.023	1.52
279.394	1.5
279.764	1.45
280.134	1.48
280.504	1.48
280.874	1.5
281.244	1.45
281.614	1.53
281.983	1.6
282.353	1.53
282.723	1.6
283.093	1.56
283.462	1.61
283.832	1.6
284.202	1.69
284.571	1.64
284.941	1.67
285.31	1.64
285.68	1.71
286.049	1.68
286.418	1.59
286.788	1.76
287.157	1.83
287.526	1.77
287.895	1.74
288.264	1.71
288.633	1.7
289.002	1.69
289.371	1.63
289.74	1.58
290.109	1.57
290.478	1.61
290.847	1.6
291.216	1.54
291.585	1.51
291.953	1.5
292.322	1.62
292.691	1.58
293.059	1.59
293.428	1.54
293.796	1.57
294.165	1.53
294.533	1.44
294.901	1.42
295.27	1.46
295.638	1.54
296.006	1.45
296.374	1.38
296.743	1.37
297.111	1.5
297.479	1.49
297.847	1.44
298.215	1.43
298.583	1.47
298.95	1.53
299.318	1.54
299.686	1.49
300.054	1.45
300.422	1.49
300.789	1.52
301.157	1.49
301.525	1.41
301.892	1.38
302.26	1.46
302.627	1.45
302.994	1.42
303.362	1.45
303.729	1.53
304.097	1.48
304.464	1.46
304.831	1.37
305.198	1.35
305.565	1.29
305.932	1.27
306.299	1.13
306.666	1.18
307.033	1.22
307.4	1.31
307.767	1.25
308.134	1.24
308.501	1.15
308.867	1.11
309.234	1.1
309.601	1.08
309.967	1
310.334	0.98
310.701	0.94
311.067	0.93
311.433	0.89
311.8	0.86
312.166	0.81
312.533	0.78
312.899	0.72
313.265	0.74
313.631	0.7
313.997	0.72
314.363	0.67
314.729	0.66
315.096	0.74
315.461	0.78
315.827	0.68
316.193	0.65
316.559	0.51
316.925	0.57
317.291	0.47
317.656	0.53
318.022	0.61
318.388	0.5
318.753	0.49
319.119	0.58
319.484	0.63
319.85	0.62
320.215	0.66
320.581	0.64
320.946	0.7
321.311	0.78
321.676	0.75
322.042	0.79
322.407	0.68
322.772	0.67
323.137	0.71
323.502	0.79
323.867	0.82
324.232	0.76
324.597	0.82
324.962	0.91
325.327	0.99
325.691	1.09
326.056	1.05
326.421	1.17
326.785	1.14
327.15	1.07
327.514	1.22
327.879	1.25
328.243	1.25
328.608	1.31
328.972	1.42
329.337	1.29
329.701	1.22
330.065	1.25
330.429	1.25
330.794	1.25
331.158	1.28
331.522	1.46
331.886	1.52
332.25	1.49
332.614	1.42
332.978	1.37
333.342	1.39
333.705	1.39
334.069	1.43
334.433	1.39
334.797	1.29
335.16	1.34
335.524	1.28
335.887	1.26
336.251	1.23
336.614	1.26
336.978	1.26
337.341	1.27
337.705	1.2
338.068	1.21
338.431	1.25
338.794	1.26
339.158	1.21
339.521	1.17
339.884	1.2
340.247	1.12
340.61	1.1
340.973	0.99
341.336	1.02
341.699	1.06
342.062	1.07
342.424	1
342.787	0.91
343.15	0.87
343.512	0.91
343.875	0.94
344.238	0.89
344.6	0.91
344.963	0.96
345.325	1.03
345.688	0.97
346.05	0.99
346.412	1
346.775	0.99
347.137	0.94
347.499	1.03
347.861	1.12
348.223	1.15
348.585	1.16
348.947	1.11
349.309	1.11
349.671	0.98
350.033	1.14
350.395	1.06
350.757	1.13
351.118	1.14
351.48	1.21
351.842	1.21
352.203	1.17
352.565	1.13
352.927	1.15
353.288	1.18
353.65	1.13
354.011	1.11
354.372	1.11
354.734	1.14
355.095	1.17
355.456	1.16
355.817	1.18
356.179	1.13
356.54	1.04
356.901	0.98
357.262	0.96
357.623	0.98
357.984	1.09
358.345	1.2
358.705	1.26
359.066	1.2
359.427	1.35
359.788	1.29
360.148	1.37
360.509	1.31
360.87	1.33
361.23	1.37
361.591	1.4
361.951	1.48
362.312	1.52
362.672	1.57
363.032	1.61
363.393	1.61
363.753	1.6
364.113	1.59
364.473	1.65
364.833	1.56
365.193	1.54
365.553	1.66
365.913	1.66
366.273	1.73
366.633	1.73
366.993	1.73
367.353	1.62
367.713	1.64
368.072	1.68
368.432	1.52
368.792	1.55
369.151	1.58
369.511	1.66
369.87	1.75
370.23	1.79
370.589	1.86
370.949	1.81
371.308	1.88
371.667	1.93
372.027	1.96
372.386	2.08
372.745	2.23
373.104	2.27
373.463	2.29
373.822	2.47
374.181	2.57
374.54	2.61
374.899	2.74
375.258	2.8
375.617	2.92
375.975	3.05
376.334	3.14
376.693	3.28
377.052	3.35
377.41	3.59
377.769	3.75
378.127	3.87
378.486	4.02
378.844	4.21
379.202	4.3
379.561	4.39
379.919	4.48
380.277	4.54
380.636	4.76
380.994	4.9
381.352	5.12
381.71	5.19
382.068	5.38
382.426	5.49
382.784	5.7
383.142	5.92
383.5	6.1
383.857	6.34
384.215	6.49
384.573	6.76
384.931	6.97
385.288	7.22
385.646	7.49
386.003	7.76
386.361	8.01
386.718	8.28
387.076	8.51
387.433	8.7
387.791	8.86
388.148	9.25
388.505	9.6
388.862	10
389.22	10.44
389.577	10.68
389.934	11.07
390.291	11.31
390.648	11.74
391.005	12.17
391.362	12.67
391.718	13.08
392.075	13.51
392.432	14
392.789	14.43
393.145	15
393.502	15.47
393.859	15.99
394.215	16.44
394.572	16.97
394.928	17.46
395.285	17.97
395.641	18.39
395.997	18.99
396.354	19.67
396.71	20.28
397.066	20.85
397.422	21.49
397.778	22.14
398.134	22.73
398.491	23.42
398.846	24.01
399.202	24.71
399.558	25.3
399.914	25.85
400.27	26.41
400.626	27
400.981	27.71
401.337	28.3
401.693	28.89
402.048	29.46
402.404	30.09
402.759	30.7
403.115	31.42
403.47	31.97
403.826	32.57
404.181	33.08
404.536	33.88
404.892	34.5
405.247	35.11
405.602	35.81
405.957	36.29
406.312	36.8
406.667	37.23
407.022	37.83
407.377	38.45
407.732	39.09
408.087	39.72
408.442	40.23
408.796	40.75
409.151	41.41
409.506	42
409.86	42.32
410.215	42.92
410.57	43.52
410.924	43.93
411.279	44.39
411.633	44.85
411.987	45.31
412.342	45.86
412.696	46.53
413.05	47.12
413.404	47.55
413.758	48.06
414.113	48.37
414.467	48.73
414.821	49.3
415.175	49.72
415.529	50.1
415.882	50.4
416.236	50.62
416.59	50.96
416.944	51.18
417.298	51.59
417.651	51.77
418.005	51.92
418.358	52.14
418.712	52.69
419.065	52.94
419.419	53.2
419.772	53.45
420.126	53.74
420.479	53.92
420.832	54.28
421.185	54.25
421.539	54.18
421.892	54.32
422.245	54.36
422.598	54.4
422.951	54.7
423.304	54.79
423.657	54.78
424.01	55.01
424.363	55.08
424.715	55.23
425.068	55.51
425.421	55.65
425.773	55.71
426.126	55.87
426.479	56.21
426.831	56.46
427.184	56.61
427.536	56.56
427.889	56.66
428.241	56.79
428.593	56.95
428.945	57.04
429.298	57.13
429.65	57.04
430.002	57.29
430.354	57.44
430.706	57.54
431.058	57.67
431.41	57.84
431.762	57.86
432.114	57.88
432.466	57.97
432.817	58.03
433.169	58.3
433.521	58.4
433.872	58.27
434.224	58.13
434.576	58.28
434.927	58.22
435.279	58.26
435.63	58.27
435.981	58.4
436.333	58.36
436.684	58.34
437.035	58.16
437.387	58.01
437.738	57.95
438.089	57.88
438.44	57.95
438.791	57.89
439.142	57.94
439.493	57.97
439.844	57.8
440.195	57.57
440.545	57.53
440.896	57.67
441.247	57.66
441.598	57.58
441.948	57.5
442.299	57.39
442.649	57.32
443	57.5
443.35	57.39
443.701	57.29
444.051	57.25
444.401	57.16
444.752	57.08
445.102	57.2
445.452	57.16
445.802	57.21
446.152	57.49
446.502	57.45
446.852	57.56
447.202	57.46
447.552	57.57
447.902	57.6
448.252	57.44
448.602	56.62
448.952	56.74
449.301	56.66
449.651	56.63
450.001	56.58
450.35	56.62
450.7	56.65
451.049	56.77
451.399	57.02
451.748	56.99
452.097	57.13
452.447	57.22
452.796	57.14
453.145	57.25
453.494	57.34
453.843	57.16
454.193	57.37
454.542	57.53
454.891	57.52
455.239	57.66
455.588	57.55
455.937	57.62
456.286	57.77
456.635	57.71
456.984	57.95
457.332	59.3
457.681	59.51
458.03	59.67
458.378	59.58
458.727	59.73
459.075	59.67
459.423	59.8
459.772	59.68
460.12	59.57
460.468	59.48
460.817	59.43
461.165	59.4
461.513	59.57
461.861	59.56
462.209	59.46
462.557	59.71
462.905	59.73
463.253	59.73
463.601	59.72
463.949	59.68
464.297	59.73
464.644	59.76
464.992	59.55
465.34	59.79
465.687	59.68
466.035	59.31
466.383	59.14
466.73	59.27
467.078	59.31
467.425	59.26
467.772	59.23
468.12	59.03
468.467	59.04
468.814	59.14
469.161	59.15
469.508	59.05
469.856	58.97
470.203	58.57
470.55	58.47
470.897	58.22
471.243	58.17
471.59	57.82
471.937	57.63
472.284	57.35
472.631	57.3
472.977	57.09
473.324	56.94
473.671	56.91
474.017	56.46
474.364	56.44
474.71	56.31
475.057	56.26
475.403	55.99
475.749	55.93
476.096	55.86
476.442	55.86
476.788	55.78
477.134	55.68
477.48	55.47
477.826	55.39
478.172	55.28
478.518	55.39
478.864	55.45
479.21	55.38
479.556	55.39
479.902	55.25
480.248	55.3
480.593	55.31
480.939	55.53
481.285	55.46
481.63	55.54
481.976	55.47
482.321	55.53
482.667	55.69
483.012	55.77
483.357	55.87
483.703	55.76
484.048	55.85
484.393	55.81
484.738	55.79
485.084	55.77
485.429	55.85
485.774	55.91
486.119	56.04
486.464	56.01
486.808	56.13
487.153	55.98
487.498	56.14
487.843	56.11
488.188	56.16
488.532	56.15
488.877	56.16
489.222	56.15
489.566	56.05
489.911	56.2
490.255	56.31
490.6	56.45
490.944	56.29
491.288	56.28
491.633	56.16
491.977	55.99
492.321	56.02
492.665	55.91
493.009	55.8
493.353	55.6
493.697	55.63
494.041	55.6
494.385	55.56
494.729	55.36
495.073	55.32
495.417	55.24
495.76	55.23
496.104	55
496.448	54.97
496.791	54.85
497.135	54.69
497.479	54.56
497.822	54.42
498.165	54.29
498.509	54.11
498.852	53.81
499.196	53.71
499.539	53.65
499.882	53.46
500.225	53.26
500.568	53.27
500.911	53.19
501.254	53.09
501.597	53.17
501.94	53.15
502.283	52.96
502.626	52.76
502.969	52.51
503.312	52.45
503.654	52.36
503.997	52.17
504.34	52.07
504.682	51.91
505.025	51.78
505.367	51.67
505.71	51.55
506.052	51.36
506.395	51.28
506.737	51.15
507.079	50.93
507.421	50.92
507.764	50.77
508.106	50.59
508.448	50.6
508.79	50.64
509.132	50.55
509.474	50.38
509.816	50.23
510.158	50.01
510.499	49.97
510.841	49.74
511.183	49.67
511.525	49.63
511.866	49.61
512.208	49.47
512.549	49.31
512.891	49.28
513.232	49.26
513.574	49.28
513.915	49.21
514.256	49.1
514.598	49.15
514.939	49.02
515.28	48.85
515.621	48.8
515.962	48.7
516.303	48.62
516.644	48.53
516.985	48.32
517.326	48.13
517.667	47.94
518.008	47.74
518.349	47.79
518.69	47.76
519.03	47.64
519.371	47.81
519.712	47.59
520.052	47.49
520.393	47.3
520.733	47.31
521.074	47.23
521.414	47.04
521.754	46.92
522.095	46.66
522.435	46.52
522.775	46.6
523.115	46.52
523.455	46.43
523.795	46.4
524.135	46.27
524.475	46.08
524.815	45.91
525.155	45.86
525.495	45.68
525.835	45.56
526.175	45.5
526.514	45.7
526.854	45.49
527.194	45.32
527.533	45.09
527.873	44.85
528.212	44.83
528.552	44.71
528.891	44.67
529.23	44.6
529.57	44.58
529.909	44.32
530.248	44.14
530.587	44.03
530.927	43.9
531.266	43.62
531.605	43.41
531.944	43.35
532.283	43.2
532.621	43.07
532.96	43.13
533.299	42.96
533.638	42.91
533.977	42.84
534.315	42.69
534.654	42.67
534.992	42.35
535.331	42.17
535.67	42.04
536.008	42.06
536.346	41.95
536.685	41.82
537.023	41.63
537.361	41.37
537.7	41.14
538.038	40.93
538.376	40.97
538.714	41.01
539.052	41.06
539.39	41.16
539.728	41.06
540.066	41.02
540.404	40.82
540.741	40.66
541.079	40.49
541.417	40.32
541.755	40.27
542.092	40.06
542.43	39.99
542.767	39.9
543.105	39.78
543.442	39.71
543.78	39.83
544.117	39.72
544.454	39.6
544.792	39.44
545.129	39.38
545.466	39.41
545.803	39.47
546.14	39.49
546.477	39.37
546.814	39.32
547.151	39.19
547.488	39.09
547.825	38.86
548.162	38.95
548.499	38.93
548.835	39.02
549.172	39.01
549.509	39.08
549.845	39.01
550.182	38.94
550.518	38.99
550.855	38.92
551.191	39
551.528	39.04
551.864	39.19
552.2	39.07
552.537	39.1
552.873	39.16
553.209	39.12
553.545	39.21
553.881	39.29
554.217	39.33
554.553	39.37
554.889	39.43
555.225	39.45
555.561	39.61
555.896	39.51
556.232	39.56
556.568	39.6
556.903	39.6
557.239	39.64
557.575	39.74
557.91	39.81
558.245	39.89
558.581	39.92
558.916	39.87
559.252	39.97
559.587	39.96
559.922	40.06
560.257	40.01
560.592	40.15
560.928	40.07
561.263	40.02
561.598	40.18
561.933	40.08
562.267	40.23
562.602	40.22
562.937	40.32
563.272	40.49
563.607	40.56
563.941	40.37
564.276	40.43
564.611	40.58
564.945	40.55
565.28	40.58
565.614	40.57
565.949	40.54
566.283	40.62
566.617	40.65
566.951	40.8
567.286	40.89
567.62	40.89
567.954	40.91
568.288	40.98
568.622	41
568.956	40.87
569.29	40.97
569.624	41.07
569.958	41.15
570.292	41.2
570.626	41.17
570.959	41.13
571.293	41.13
571.627	41.22
571.96	41.23
572.294	41.28
572.627	41.31
572.961	41.4
573.294	41.38
573.627	41.43
573.961	41.34
574.294	41.49
574.627	41.41
574.961	41.48
575.294	41.38
575.627	41.3
575.96	41.25
576.293	41.13
576.626	41.02
576.959	41.1
577.292	41.12
577.624	41.07
577.957	41.04
578.29	40.98
578.623	41.1
578.955	41.07
579.288	41.21
579.62	41.14
579.953	41.13
580.285	41.15
580.618	41.3
580.95	41.2
581.282	41.1
581.615	41.08
581.947	41.17
582.279	41.37
582.611	41.38
582.943	41.51
583.275	41.48
583.607	41.65
583.939	41.83
584.271	42.04
584.603	42.24
584.935	42.39
585.267	42.41
585.598	42.56
585.93	42.72
586.262	42.93
586.593	43.05
586.925	43.11
587.256	43.25
587.588	43.16
587.919	43.35
588.25	43.35
588.582	43.46
588.913	43.49
589.244	43.74
589.575	43.94
589.907	44.05
590.238	44.09
590.569	44.13
590.9	44.32
591.231	44.43
591.562	44.51
591.892	44.55
592.223	44.74
592.554	44.76
592.885	44.82
593.215	44.88
593.546	44.84
593.877	44.97
594.207	45.17
594.538	45.22
594.868	45.49
595.198	45.51
595.529	45.54
595.859	45.62
596.189	45.77
596.52	46.1
596.85	46.24
597.18	46.33
597.51	46.45
597.84	46.6
598.17	46.91
598.5	47.04
598.83	47.19
599.16	47.43
599.489	47.54
599.819	47.87
600.149	47.99
600.479	48.19
600.808	48.47
601.138	48.68
601.467	48.92
601.797	49.25
602.126	49.52
602.456	49.71
602.785	50
603.114	50.07
603.443	50.35
603.773	50.83
604.102	51.31
604.431	51.5
604.76	51.57
605.089	51.8
605.418	52.06
605.747	52.41
606.076	52.5
606.405	52.65
606.733	52.83
607.062	53.12
607.391	53.11
607.72	53.38
608.048	53.47
608.377	53.79
608.705	54.13
609.034	54.26
609.362	54.68
609.69	54.93
610.019	55.48
610.347	55.72
610.675	55.9
611.004	56.03
611.332	56.34
611.66	56.6
611.988	56.65
612.316	56.73
612.644	56.96
612.972	57.19
613.3	57.33
613.627	57.51
613.955	57.73
614.283	58.33
614.611	58.48
614.938	58.99
615.266	59.26
615.593	59.44
615.921	59.72
616.248	60.11
616.576	60.68
616.903	60.94
617.23	61.27
617.558	61.75
617.885	62.18
618.212	62.44
618.539	62.85
618.866	63.12
619.193	63.38
619.52	63.84
619.847	64.12
620.174	64.3
620.501	64.73
620.828	64.78
621.155	65
621.481	65.2
621.808	65.26
622.135	65.35
622.461	65.01
622.788	65.28
623.114	65.4
623.441	65.13
623.767	65.47
624.093	65.67
624.42	66.09
624.746	66.11
625.072	66.31
625.398	66.61
625.725	66.35
626.051	66.51
626.377	66.38
626.703	66.16
627.029	66.31
627.354	66.66
627.68	66.8
628.006	67.05
628.332	67.41
628.658	67.82
628.983	68.03
629.309	68.14
629.634	68.57
629.96	68.9
630.285	69.65
630.611	69.94
630.936	70.13
631.262	69.84
631.587	70.43
631.912	70.66
632.237	71.16
632.562	71.13
632.887	70.73
633.213	70.37
633.538	70.69
633.863	71.28
634.187	71.16
634.512	70.81
634.837	71.07
635.162	70.92
635.487	70.51
635.811	70.32
636.136	70.22
636.461	70.59
636.785	70.2
637.11	71.05
637.434	70.87
637.758	71.21
638.083	71.56
638.407	71.28
638.731	70.9
639.056	71.68
639.38	71.83
639.704	72.22
640.028	72.74
640.352	72.51
640.676	71.65
641	72.83
641.324	72.64
641.648	71.88
641.972	71.72
642.295	72.1
642.619	71.86
642.943	71.36
643.266	71.47
643.59	71.7
643.913	71.21
644.237	71.28
644.56	71.3
644.884	71.33
645.207	70.94
645.53	71.65
645.854	71.11
646.177	71.05
646.5	71.21
646.823	71.61
647.146	71.13
647.469	71.52
647.792	72.01
648.115	71.58
648.438	72.21
648.761	74.64
649.084	75.09
649.406	75.42
649.729	74.8
650.052	74.44
650.374	74.39
650.697	74.72
651.019	74.9
651.342	75.03
651.664	75.19
651.987	75.52
652.309	75.73
652.631	75.74
652.953	75.82
653.276	75.75
653.598	75.83
653.92	75.92
654.242	76
654.564	76.03
654.886	76.13
655.208	76.14
655.53	75.92
655.851	75.79
656.173	75.77
656.495	75.73
656.816	75.09
657.138	74.62
657.46	74.52
657.781	76.42
658.103	78.1
658.424	79.03
658.746	79.06
659.067	79.73
659.388	79.2
659.709	79.15
660.031	78.84
660.352	78.1
660.673	77.85
660.994	77.3
661.315	77.58
661.636	76.48
661.957	77.38
662.278	77.31
662.599	76.39
662.919	76.54
663.24	76.61
663.561	77.37
663.881	77.05
664.202	77.85
664.523	76.69
664.843	76.73
665.164	76.09
665.484	75.6
665.804	76.09
666.125	76.38
666.445	75.82
666.765	75.74
667.085	75.85
667.405	75.79
667.726	76.39
668.046	75.82
668.366	76.75
668.686	76.91
669.005	76.79
669.325	76.85
669.645	76.82
669.965	75.78
670.285	75.46
670.604	75.93
670.924	75.3
671.243	75.52
671.563	75.71
671.882	75.52
672.202	74.93
672.521	75.73
672.841	76.01
673.16	76.97
673.479	77.02
673.798	76.23
674.117	76.62
674.437	76.87
674.756	77.36
675.075	76.87
675.394	77.96
675.713	77.24
676.031	78.03
676.35	77.45
676.669	76.98
676.988	77.52
677.306	76.92
677.625	77.1
677.944	77.63
678.262	77.75
678.581	78.04
678.899	79.02
679.218	79.5
679.536	79.56
679.854	79.37
680.172	80.36
680.491	80.27
680.809	79.81
681.127	80.05
681.445	80.69
681.763	81.21
682.081	80.48
682.399	80.56
682.717	79.97
683.035	80.28
683.352	79.69
683.67	80.14
683.988	80.76
684.306	81.36
684.623	80.99
684.941	80.97
685.258	81.79
685.576	81.94
685.893	81.77
686.211	81.99
686.528	82.3
686.845	81.68
687.162	80.32
687.48	79.8
687.797	81.47
688.114	80.66
688.431	80.6
688.748	79.9
689.065	79.71
689.382	79.16
689.699	79.07
690.015	79.67
690.332	80.14
690.649	80.29
690.966	79.37
691.282	79.9
691.599	80.06
691.915	78.23
692.232	78.08
692.548	79.31
692.865	79.76
693.181	79.85
693.497	80.4
693.813	80.73
694.13	81.22
694.446	81.35
694.762	81.83
695.078	82.97
695.394	83.83
695.71	82.44
696.026	82.66
696.342	83.76
696.658	85.43
696.973	84.58
697.289	84.76
697.605	84.29
697.92	83.74
698.236	83.55
698.551	84.45
698.867	85.73
699.182	86.16
699.498	86.2
699.813	87.96
700.128	86.98
700.444	85.82
700.759	85.1
701.074	84.21
701.389	83.13
701.704	82.59
702.019	82.5
702.334	82.19
702.649	82.08
702.964	81.53
703.279	81.22
703.594	81.31
703.908	81.02
704.223	80
704.538	79.16
704.852	79.99
705.167	80.02
705.481	79.86
705.796	78.59
706.11	78.4
706.425	78.32
706.739	78.62
707.053	78.12
707.368	78.07
707.682	76.49
707.996	76.19
708.31	76.18
708.624	75.58
708.938	76.57
709.252	77.54
709.566	77.92
709.88	78.01
710.193	78.63
710.507	77.72
710.821	78.93
711.135	78.68
711.448	78.94
711.762	79.41
712.075	79.22
712.389	79.27
712.702	78.31
713.015	79.36
713.329	79.4
713.642	81.06
713.955	81.45
714.269	81.49
714.582	81.62
714.895	81.9
715.208	83.11
715.521	83.63
715.834	84.73
716.147	84.03
716.459	85.65
716.772	83.75
717.085	83.67
717.398	83.2
717.71	82.65
718.023	80.02
718.336	80.24
718.648	79.56
718.961	78.51
719.273	79.6
719.585	80.19
719.898	81.06
720.21	82.42
720.522	83.81
720.834	80.62
721.147	80.3
721.459	81.66
721.771	80.32
722.083	78.89
722.395	78.7
722.707	78.64
723.019	76.74
723.33	78.94
723.642	78.87
723.954	79.66
724.265	79.96
724.577	81.21
724.889	79.77
725.2	80.43
725.512	79.69
725.823	81.75
726.135	81.8
726.446	82.09
726.757	82.09
727.068	80.54
727.38	80.03
727.691	78.62
728.002	76.35
728.313	75.86
728.624	76.96
728.935	77.5
729.246	77.18
729.557	77.55
729.867	79.33
730.178	78.29
730.489	78
730.8	78
731.11	77.04
731.421	75.83
731.731	76.68
732.042	74.9
732.352	74.3
732.663	75.32
732.973	75.68
733.283	76.99
733.594	76.29
733.904	76.16
734.214	75.96
734.524	77.18
734.834	78.01
735.144	78.81
735.454	80.11
735.764	83.27
736.074	82.36
736.384	82.39
736.694	82.85
737.003	82.33
737.313	83.49
737.623	80.94
737.932	82.18
738.242	82.95
738.551	82.41
738.861	81.53
739.17	81.26
739.479	78.65
739.789	78.55
740.098	79.7
740.407	79.21
740.716	79.73
741.025	77.22
741.334	77.75
741.643	80.42
741.952	80.53
742.261	79.85
742.57	78.84
742.879	76.55
743.188	76.82
743.497	73.03
743.805	74.16
744.114	76.13
744.422	75.01
744.731	74.86
745.04	72.19
745.348	75.08
745.656	77.46
745.965	76.68
746.273	80.26
746.581	82.4
746.889	84.27
747.198	85.27
747.506	87.09
747.814	86.52
748.122	86.4
748.43	81.38
748.738	79.66
749.046	77.83
749.353	76.11
749.661	76.13
749.969	76.7
750.277	78.27
750.584	78.8
750.892	78.58
751.199	78.74
751.507	78.45
751.814	79.43
752.122	78.97
752.429	79.21
752.736	82.28
753.044	81.59
753.351	81.04
753.658	82.04
753.965	80.31
754.272	79.77
754.579	79.17
754.886	80.99
755.193	80.64
755.5	79.58
755.807	80.35
756.114	81.92
756.42	83.69
756.727	87.5
757.034	88.37
757.34	88.89
757.647	88.22
757.953	87.73
758.26	85.39
758.566	84.88
758.872	85.04
759.179	88.3
759.485	87.19
759.791	87.12
760.097	85.56
760.403	85.46
760.709	87.51
761.015	84.17
761.321	83.06
761.627	83.41
761.933	82.02
762.239	82.7
762.545	80.35
762.851	80.43
763.156	80.93
763.462	83.05
763.767	85.3
764.073	87.69
764.378	84.76
764.684	85.39
764.989	86.89
765.295	87.54
765.6	86.53
765.905	91.3
766.21	94.85
766.515	97.15
766.821	97.52
767.126	93.77
767.431	98.07
767.736	101.93
768.041	96.43
768.345	96.71
768.65	99.33
768.955	101.87
769.26	102.95
769.564	103.6
769.869	101.85
770.174	109.35
770.478	109.8
770.783	110.78
771.087	106.01
771.391	103.26
771.696	98.97
772	99.27
772.304	101.81
772.608	101.79
772.913	100.73
773.217	102.81
773.521	98.15
773.825	94.67
774.129	91.95
774.433	90.01
774.736	90.01
775.04	84.52
775.344	79.25
775.648	77.54
775.951	77.27
776.255	77.15
776.559	72.85
776.862	76.41
777.166	81.33
777.469	81.76
777.772	82.65
778.076	84.06
778.379	81.8
778.682	81.63
778.985	83.16
779.289	86.41
779.592	84.56
779.895	79.85
780.198	79.39
780.501	76.4
780.804	73.78
781.106	75.77
781.409	78.9
781.712	80.9
782.015	77.24
782.317	82.46
782.62	85.76
782.923	89.91
783.225	95.78
783.527	94.67
783.83	96.31
784.132	97.58
784.435	92.72
784.737	88.39
785.039	89.28
785.341	82.36
785.643	84.49
785.945	90.71
786.248	90.86
786.55	88.74
786.851	93.05
787.153	91.26
787.455	91.85
787.757	86.14
788.059	90.54
788.36	91.1
788.662	94.78
788.964	90.51
789.265	90.3
789.567	91.21
789.868	82.18
790.17	85.46
790.471	80.62
790.772	72.75
791.074	73.6
791.375	75.22
791.676	75.36
791.977	73.71
792.278	78.1
792.579	78.91
792.88	80.64
793.181	79.38
793.482	73.84
793.783	74.89
794.083	75.06
794.384	66.8
794.685	70.31
794.986	68.92
795.286	67.42
795.587	64.02
795.887	62.64
796.188	56.74
796.488	56.92
796.788	57.28
797.089	60.93
797.389	71.33
797.689	68.55
797.989	73.83
798.289	80.77
798.589	79.65
798.889	71.22
799.189	73.19
799.489	74.1
799.789	59.47
800.089	57.79
800.389	56.41
800.688	60.48
800.988	68.47
801.288	62.07
801.587	63.7
801.887	71.09
802.186	59.17
802.486	54.85
802.785	63.35
803.085	78.23
803.384	98.48
803.683	111.79
803.982	90.44
804.281	65.31
804.58	79.06
804.879	75.48
805.178	100.75
805.477	101.42
805.776	103.78
806.075	75.55
806.374	106.9
806.673	65.54
806.971	43.34
807.27	103.4
807.569	104.06
807.867	141.46
808.166	61.94
808.464	-36.78
808.763	125.1
809.061	124.7
809.359	193.73
809.658	152.28
809.956	281.82
810.254	208.37
810.552	246.79
810.85	179.53
811.148	219.09
811.446	241.01
811.744	204.46
812.042	174.91
812.34	133.75
812.638	109.9
812.935	119.11
813.233	73.92
813.531	101.99
813.828	83.85
814.126	110.38
814.423	134.19
814.721	143.83
815.018	151.47
815.316	150.63
815.613	177.57
815.91	223.14
816.207	194.58
816.504	143.99
816.802	137.98
817.099	232.89
817.396	146.32
817.693	92.36
817.99	103.53
818.286	146.86
818.583	128.32
818.88	131.68
819.177	179.44
819.473	97.03
819.77	105.28
820.067	89.89
820.363	71.16
820.66	75.81
820.956	84.36
821.252	92.41
821.549	102.84
821.845	86.72
822.141	98.26
822.437	86.8
822.734	83.01
823.03	91.42
823.326	88.42
823.622	107.58
823.918	129.2
824.213	161.1
824.509	144.9
824.805	169.46
825.101	199.28
825.397	186.96
825.692	171.29
825.988	187.65
826.283	177.84
826.579	183.01
826.874	214.98
827.17	235.3
827.465	233.53
827.76	437.9
828.056	571.52
828.351	322.18
828.646	335.35
828.941	353.77
829.236	452.74
829.531	568.76
829.826	404.24
830.121	331.1
830.416	288.56
830.711	267.1
831.006	194.06
831.3	183.87
831.595	158.78
831.89	159.94
832.184	181.99
832.479	185.06
832.773	178.69
833.068	168.05
833.362	146.52
833.656	171.83
833.951	182.01
834.245	181.67
834.539	174.25
834.833	220.15
835.127	136.27
835.421	155.36
835.715	168.47
836.009	206.94
836.303	233.33
836.597	206.39
836.891	219.36
837.185	285.82
837.478	803.14
837.772	450.66
838.066	373.92
838.359	519.87
838.653	484.88
838.946	417.39
839.24	315.62
839.533	230.71
839.826	177.54
840.119	180.71
840.413	209.28
840.706	213.15
840.999	176.11
841.292	151.39
841.585	149.73
841.878	148.03
842.171	162.2
842.464	182.24
842.757	208.51
843.049	237.13
843.342	184.57
843.635	158.62
843.927	162.19
844.22	141.05
844.513	127.58
844.805	104.95
845.098	108.08
845.39	106.18
845.682	98.06
845.975	88.09
846.267	104.13
846.559	103.69
846.851	87.72
847.143	111.83
847.435	127.05
847.727	141.15
848.019	167.01
848.311	147.34
848.603	139.58
848.895	152.43
849.186	136.45
849.478	127.47
849.77	132.02
850.061	135.13
850.353	145.15
850.645	148.68
850.936	145.4
851.227	139.81
851.519	158.04
851.81	148.42
852.101	139.58
852.393	151.4
852.684	156.08
852.975	151.6
853.266	158.14
853.557	147.59
853.848	162.17
854.139	181.66
854.43	182.57
854.72	161.83
855.011	144.59
855.302	143.42
855.593	164.43
855.883	194.99
856.174	164.26
856.464	177.83
856.755	186.66
857.045	161.32
857.336	138.16
857.626	132.71
857.916	145.46
858.206	194.83
858.497	301.03
858.787	219.46
859.077	278.72
859.367	263.5
859.657	196.85
859.947	148.14
860.237	190.79
860.527	154.69
860.816	153.46
861.106	140.91
861.396	130.58
861.685	119.09
861.975	124.74
862.265	168.22
862.554	151.64
862.844	127.26
863.133	112.4
863.422	104.89
863.712	79.67
864.001	50.71
864.29	46.44
864.579	44.1
864.868	48.44
865.157	33.04
865.446	31.56
865.735	16.93
866.024	15.71
866.313	18.07
866.602	22.58
866.891	12.49
867.179	-3.99
867.468	1.14
