Data from T2_Reflection__77__01-18-56-876.txt Node

Date: Fri Jun 04 01:18:56 CEST 2021
User: mabdelazizm
Spectrometer: FLMS18565
Trigger mode: 0
Integration Time (sec): 2.000000E0
Scans to average: 1
Electric dark correction enabled: true
Nonlinearity correction enabled: false
Boxcar width: 12
XAxis mode: Wavelengths
Number of Pixels in Spectrum: 2048
>>>>>Begin Spectral Data<<<<<
179.071	192.83
179.452	64.98
179.833	168.06
180.214	2450
180.595	141.01
180.977	219.7
181.358	591.84
181.739	-175.76
182.12	-14.85
182.501	48.75
182.882	38.12
183.262	59.17
183.643	68.06
184.024	55.15
184.405	43.23
184.786	64.03
185.166	61.04
185.547	52.57
185.927	49.2
186.308	56.28
186.689	68.86
187.069	55.46
187.449	48.06
187.83	41.72
188.21	35.19
188.59	43.95
188.971	46.15
189.351	51.68
189.731	48.54
190.111	49.32
190.491	46.65
190.871	43.89
191.251	44.45
191.631	46.09
192.011	37.48
192.391	32.7
192.771	32.89
193.151	33.43
193.531	34.83
193.91	37.3
194.29	33.98
194.67	37.03
195.049	32.82
195.429	31.97
195.808	33.03
196.188	26.92
196.567	27.04
196.946	32.55
197.326	32.92
197.705	31.71
198.084	28.32
198.464	21.91
198.843	19.87
199.222	22.52
199.601	17.85
199.98	20.5
200.359	19.22
200.738	20.05
201.117	18.45
201.496	20.91
201.875	23.48
202.254	23.94
202.632	20.77
203.011	20.96
203.39	19.56
203.768	18.81
204.147	15.73
204.525	16.05
204.904	15.24
205.282	13.08
205.661	14.34
206.039	13.41
206.418	12.61
206.796	12.75
207.174	17.21
207.552	18.86
207.931	18.87
208.309	18.35
208.687	15.71
209.065	19.21
209.443	19.66
209.821	19.95
210.199	19.36
210.577	19.38
210.954	18.87
211.332	16.9
211.71	14.98
212.088	12.34
212.465	12.97
212.843	14.06
213.221	13.25
213.598	14.69
213.976	14.01
214.353	15.53
214.731	15.15
215.108	15.05
215.485	14.68
215.863	12.07
216.24	11.17
216.617	9.09
216.994	7.44
217.371	9.52
217.749	10.35
218.126	9.52
218.503	7.86
218.88	6.68
219.256	6.4
219.633	6.87
220.01	7.86
220.387	7.61
220.764	8.75
221.14	8.76
221.517	10.05
221.894	8.34
222.27	8.48
222.647	8.91
223.023	7.31
223.4	7.26
223.776	6.22
224.153	6.79
224.529	5.88
224.905	5.59
225.282	5.77
225.658	6.07
226.034	5.74
226.41	5.53
226.786	5.22
227.162	5.13
227.538	5.34
227.914	5.06
228.29	4.65
228.666	4.19
229.042	4.01
229.418	3.48
229.793	3.65
230.169	3.01
230.545	2.7
230.92	2.52
231.296	2.92
231.672	2.55
232.047	2.37
232.422	2.62
232.798	2.5
233.173	2.44
233.549	2.44
233.924	2.73
234.299	2.86
234.674	2.87
235.05	2.78
235.425	2.61
235.8	2.34
236.175	2.06
236.55	1.94
236.925	1.91
237.3	1.63
237.675	1.65
238.049	1.62
238.424	1.57
238.799	1.47
239.174	1.43
239.548	1.72
239.923	1.65
240.297	1.69
240.672	1.64
241.046	1.58
241.421	1.61
241.795	1.53
242.17	1.53
242.544	1.44
242.918	1.51
243.293	1.46
243.667	1.56
244.041	1.49
244.415	1.41
244.789	1.5
245.163	1.68
245.537	1.73
245.911	1.74
246.285	1.74
246.659	1.79
247.033	1.76
247.406	1.83
247.78	1.77
248.154	1.82
248.528	1.8
248.901	1.75
249.275	1.82
249.648	1.86
250.022	1.81
250.395	1.8
250.769	1.73
251.142	1.76
251.515	1.78
251.888	1.8
252.262	1.75
252.635	1.8
253.008	1.73
253.381	1.65
253.754	1.67
254.127	1.64
254.5	1.55
254.873	1.52
255.246	1.52
255.619	1.54
255.992	1.63
256.364	1.62
256.737	1.59
257.11	1.6
257.483	1.5
257.855	1.49
258.228	1.46
258.6	1.42
258.973	1.39
259.345	1.35
259.718	1.29
260.09	1.32
260.462	1.29
260.834	1.32
261.207	1.33
261.579	1.36
261.951	1.32
262.323	1.23
262.695	1.27
263.067	1.3
263.439	1.3
263.811	1.36
264.183	1.35
264.555	1.4
264.927	1.39
265.298	1.39
265.67	1.34
266.042	1.3
266.413	1.28
266.785	1.33
267.156	1.38
267.528	1.33
267.899	1.25
268.271	1.22
268.642	1.25
269.013	1.35
269.385	1.34
269.756	1.33
270.127	1.3
270.498	1.29
270.87	1.21
271.241	1.1
271.612	1.06
271.983	1.09
272.354	1.01
272.724	0.95
273.095	1
273.466	0.98
273.837	0.94
274.208	0.9
274.578	0.78
274.949	0.73
275.32	0.73
275.69	0.72
276.061	0.8
276.431	0.75
276.802	0.78
277.172	0.85
277.542	0.77
277.913	0.75
278.283	0.71
278.653	0.69
279.023	0.7
279.394	0.68
279.764	0.65
280.134	0.63
280.504	0.73
280.874	0.79
281.244	0.75
281.614	0.76
281.983	0.79
282.353	0.64
282.723	0.69
283.093	0.59
283.462	0.63
283.832	0.69
284.202	0.79
284.571	0.72
284.941	0.72
285.31	0.69
285.68	0.69
286.049	0.67
286.418	0.61
286.788	0.67
287.157	0.72
287.526	0.73
287.895	0.72
288.264	0.7
288.633	0.7
289.002	0.77
289.371	0.71
289.74	0.63
290.109	0.62
290.478	0.66
290.847	0.7
291.216	0.68
291.585	0.71
291.953	0.68
292.322	0.79
292.691	0.79
293.059	0.76
293.428	0.7
293.796	0.74
294.165	0.75
294.533	0.68
294.901	0.73
295.27	0.75
295.638	0.82
296.006	0.79
296.374	0.83
296.743	0.83
297.111	0.91
297.479	0.88
297.847	0.88
298.215	0.82
298.583	0.84
298.95	0.88
299.318	0.92
299.686	0.83
300.054	0.78
300.422	0.76
300.789	0.78
301.157	0.78
301.525	0.7
301.892	0.72
302.26	0.79
302.627	0.82
302.994	0.84
303.362	0.86
303.729	0.92
304.097	0.84
304.464	0.84
304.831	0.82
305.198	0.82
305.565	0.68
305.932	0.64
306.299	0.6
306.666	0.64
307.033	0.63
307.4	0.64
307.767	0.61
308.134	0.6
308.501	0.56
308.867	0.53
309.234	0.53
309.601	0.53
309.967	0.49
310.334	0.49
310.701	0.5
311.067	0.44
311.433	0.44
311.8	0.48
312.166	0.44
312.533	0.44
312.899	0.37
313.265	0.32
313.631	0.29
313.997	0.25
314.363	0.21
314.729	0.23
315.096	0.27
315.461	0.17
315.827	0.07
316.193	0.05
316.559	0.03
316.925	0.06
317.291	0.01
317.656	0.01
318.022	0.11
318.388	0.03
318.753	0.05
319.119	0.09
319.484	0.04
319.85	0
320.215	0.08
320.581	0.05
320.946	0.02
321.311	0.04
321.676	0.02
322.042	-0.01
322.407	-0.01
322.772	-0.05
323.137	-0.02
323.502	-0.01
323.867	0.06
324.232	-0.05
324.597	0.04
324.962	0.15
325.327	0.22
325.691	0.28
326.056	0.26
326.421	0.28
326.785	0.29
327.15	0.28
327.514	0.36
327.879	0.38
328.243	0.34
328.608	0.45
328.972	0.52
329.337	0.42
329.701	0.35
330.065	0.35
330.429	0.34
330.794	0.3
331.158	0.39
331.522	0.55
331.886	0.63
332.25	0.6
332.614	0.56
332.978	0.49
333.342	0.63
333.705	0.68
334.069	0.71
334.433	0.65
334.797	0.6
335.16	0.64
335.524	0.64
335.887	0.57
336.251	0.47
336.614	0.52
336.978	0.46
337.341	0.49
337.705	0.44
338.068	0.43
338.431	0.43
338.794	0.45
339.158	0.46
339.521	0.47
339.884	0.57
340.247	0.47
340.61	0.38
340.973	0.29
341.336	0.29
341.699	0.39
342.062	0.43
342.424	0.3
342.787	0.21
343.15	0.08
343.512	0.1
343.875	0.14
344.238	0.12
344.6	0.16
344.963	0.22
345.325	0.23
345.688	0.19
346.05	0.19
346.412	0.22
346.775	0.28
347.137	0.28
347.499	0.32
347.861	0.28
348.223	0.3
348.585	0.35
348.947	0.23
349.309	0.25
349.671	0.2
350.033	0.28
350.395	0.31
350.757	0.36
351.118	0.32
351.48	0.36
351.842	0.29
352.203	0.36
352.565	0.3
352.927	0.3
353.288	0.29
353.65	0.3
354.011	0.31
354.372	0.38
354.734	0.43
355.095	0.44
355.456	0.42
355.817	0.35
356.179	0.24
356.54	0.2
356.901	0.2
357.262	0.17
357.623	0.07
357.984	0.12
358.345	0.16
358.705	0.16
359.066	0.06
359.427	0.07
359.788	0.01
360.148	0.04
360.509	-0
360.87	0.13
361.23	0.14
361.591	0.19
361.951	0.2
362.312	0.3
362.672	0.2
363.032	0.15
363.393	0.1
363.753	0.07
364.113	0.12
364.473	0.21
364.833	0.18
365.193	0.19
365.553	0.25
365.913	0.32
366.273	0.32
366.633	0.32
366.993	0.29
367.353	0.25
367.713	0.3
368.072	0.36
368.432	0.28
368.792	0.25
369.151	0.23
369.511	0.25
369.87	0.19
370.23	0.22
370.589	0.2
370.949	0.08
371.308	0.01
371.667	0.08
372.027	0.1
372.386	0.19
372.745	0.19
373.104	0.1
373.463	0.01
373.822	0.07
374.181	0.02
374.54	-0.01
374.899	-0.03
375.258	-0.05
375.617	0.1
375.975	0.21
376.334	0.25
376.693	0.34
377.052	0.33
377.41	0.45
377.769	0.47
378.127	0.49
378.486	0.55
378.844	0.67
379.202	0.64
379.561	0.57
379.919	0.54
380.277	0.58
380.636	0.64
380.994	0.69
381.352	0.63
381.71	0.65
382.068	0.71
382.426	0.66
382.784	0.71
383.142	0.8
383.5	0.81
383.857	0.93
384.215	0.97
384.573	0.96
384.931	0.85
385.288	0.85
385.646	0.79
386.003	0.85
386.361	0.76
386.718	0.74
387.076	0.74
387.433	0.65
387.791	0.49
388.148	0.47
388.505	0.6
388.862	0.69
389.22	0.63
389.577	0.59
389.934	0.51
390.291	0.57
390.648	0.57
391.005	0.64
391.362	0.74
391.718	0.71
392.075	0.73
392.432	0.77
392.789	0.68
393.145	0.67
393.502	0.59
393.859	0.65
394.215	0.66
394.572	0.68
394.928	0.7
395.285	0.73
395.641	0.81
395.997	0.85
396.354	0.94
396.71	1.1
397.066	1.12
397.422	1.17
397.778	1.26
398.134	1.39
398.491	1.42
398.846	1.51
399.202	1.7
399.558	1.76
399.914	1.83
400.27	1.87
400.626	1.97
400.981	2.12
401.337	2.25
401.693	2.36
402.048	2.46
402.404	2.65
402.759	2.8
403.115	2.94
403.47	3.17
403.826	3.36
404.181	3.56
404.536	3.77
404.892	3.9
405.247	4.16
405.602	4.36
405.957	4.68
406.312	4.85
406.667	5.06
407.022	5.29
407.377	5.62
407.732	6.03
408.087	6.14
408.442	6.43
408.796	6.7
409.151	7.09
409.506	7.4
409.86	7.7
410.215	8.1
410.57	8.49
410.924	8.91
411.279	9.25
411.633	9.62
411.987	10.07
412.342	10.46
412.696	10.74
413.05	11.16
413.404	11.52
413.758	12.07
414.113	12.45
414.467	12.79
414.821	13.24
415.175	13.73
415.529	14.2
415.882	14.65
416.236	15.02
416.59	15.38
416.944	15.87
417.298	16.31
417.651	16.62
418.005	16.99
418.358	17.49
418.712	17.97
419.065	18.33
419.419	18.79
419.772	19.14
420.126	19.55
420.479	19.91
420.832	20.22
421.185	20.49
421.539	20.97
421.892	21.37
422.245	21.77
422.598	22.17
422.951	22.62
423.304	23.02
423.657	23.38
424.01	23.72
424.363	24.08
424.715	24.47
425.068	24.97
425.421	25.29
425.773	25.67
426.126	26.11
426.479	26.66
426.831	27.05
427.184	27.27
427.536	27.59
427.889	27.9
428.241	28.24
428.593	28.54
428.945	29.02
429.298	29.37
429.65	29.84
430.002	30.28
430.354	30.5
430.706	30.78
431.058	31.06
431.41	31.39
431.762	31.66
432.114	31.99
432.466	32.2
432.817	32.48
433.169	32.63
433.521	32.87
433.872	33.07
434.224	33.32
434.576	33.44
434.927	33.53
435.279	33.62
435.63	33.75
435.981	33.95
436.333	34.13
436.684	34.2
437.035	34.22
437.387	34.23
437.738	34.12
438.089	34.16
438.44	34.06
438.791	34.02
439.142	34.16
439.493	34.17
439.844	33.98
440.195	33.81
440.545	33.76
440.896	33.7
441.247	33.65
441.598	33.52
441.948	33.54
442.299	33.46
442.649	33.38
443	33.28
443.35	33.29
443.701	33.33
444.051	33.39
444.401	33.31
444.752	33.06
445.102	32.97
445.452	32.96
445.802	32.91
446.152	33.13
446.502	33.16
446.852	33.21
447.202	33.21
447.552	33.29
447.902	33.32
448.252	33.45
448.602	34.15
448.952	34.29
449.301	34.33
449.651	34.43
450.001	34.57
450.35	34.75
450.7	34.89
451.049	34.95
451.399	35.13
451.748	35.44
452.097	35.8
452.447	35.83
452.796	35.94
453.145	36.12
453.494	36.43
453.843	36.56
454.193	36.89
454.542	37.25
454.891	37.27
455.239	37.53
455.588	37.68
455.937	37.86
456.286	37.99
456.635	38.14
456.984	38.31
457.332	37.97
457.681	38.18
458.03	38.35
458.378	38.43
458.727	38.61
459.075	38.77
459.423	39.04
459.772	39.06
460.12	39.1
460.468	39.07
460.817	38.91
461.165	38.98
461.513	39.04
461.861	39.28
462.209	39.35
462.557	39.45
462.905	39.42
463.253	39.3
463.601	39.41
463.949	39.4
464.297	39.27
464.644	39.31
464.992	39.32
465.34	39.4
465.687	39.3
466.035	39.16
466.383	39.03
466.73	39.06
467.078	39
467.425	38.78
467.772	38.74
468.12	38.38
468.467	38.53
468.814	38.46
469.161	38.42
469.508	38.32
469.856	38.11
470.203	37.8
470.55	37.41
470.897	37.2
471.243	37.16
471.59	36.84
471.937	36.79
472.284	36.74
472.631	36.58
472.977	36.42
473.324	36.26
473.671	36
474.017	35.71
474.364	35.55
474.71	35.44
475.057	35.25
475.403	35.13
475.749	35.09
476.096	35.15
476.442	35.13
476.788	35.18
477.134	35.02
477.48	35.01
477.826	34.92
478.172	34.81
478.518	34.98
478.864	35.12
479.21	35.29
479.556	35.36
479.902	35.34
480.248	35.58
480.593	35.7
480.939	35.77
481.285	35.87
481.63	36.12
481.976	36.28
482.321	36.49
482.667	36.7
483.012	37
483.357	37.2
483.703	37.39
484.048	37.61
484.393	37.74
484.738	37.91
485.084	38.1
485.429	38.39
485.774	38.66
486.119	38.95
486.464	39.19
486.808	39.56
487.153	39.68
487.498	40
487.843	40.18
488.188	40.52
488.532	40.76
488.877	40.89
489.222	41.05
489.566	41.19
489.911	41.54
490.255	41.8
490.6	42.03
490.944	42.17
491.288	42.3
491.633	42.46
491.977	42.49
492.321	42.62
492.665	42.74
493.009	42.76
493.353	42.77
493.697	42.89
494.041	43
494.385	43.06
494.729	43.06
495.073	43.24
495.417	43.12
495.76	43.2
496.104	43.23
496.448	43.33
496.791	43.22
497.135	43.22
497.479	43.31
497.822	43.27
498.165	43.22
498.509	43.03
498.852	42.85
499.196	42.82
499.539	42.84
499.882	42.87
500.225	42.75
500.568	42.77
500.911	42.86
501.254	42.78
501.597	42.95
501.94	42.96
502.283	42.92
502.626	42.78
502.969	42.61
503.312	42.49
503.654	42.43
503.997	42.43
504.34	42.54
504.682	42.48
505.025	42.39
505.367	42.45
505.71	42.26
506.052	42.08
506.395	42.06
506.737	42.03
507.079	42
507.421	42.08
507.764	42.07
508.106	41.97
508.448	41.89
508.79	41.8
509.132	41.7
509.474	41.62
509.816	41.49
510.158	41.43
510.499	41.42
510.841	41.24
511.183	41.25
511.525	41.27
511.866	41.31
512.208	41.08
512.549	41
512.891	40.8
513.232	40.64
513.574	40.51
513.915	40.42
514.256	40.48
514.598	40.49
514.939	40.48
515.28	40.39
515.621	40.26
515.962	40.18
516.303	40.06
516.644	39.96
516.985	39.8
517.326	39.61
517.667	39.49
518.008	39.37
518.349	39.34
518.69	39.21
519.03	39.01
519.371	38.99
519.712	38.89
520.052	38.83
520.393	38.6
520.733	38.55
521.074	38.37
521.414	38.22
521.754	38.1
522.095	38.03
522.435	37.87
522.775	37.82
523.115	37.89
523.455	37.67
523.795	37.5
524.135	37.33
524.475	37.13
524.815	36.91
525.155	36.93
525.495	36.84
525.835	36.84
526.175	36.92
526.514	36.71
526.854	36.59
527.194	36.48
527.533	36.43
527.873	36.34
528.212	36.07
528.552	35.97
528.891	35.95
529.23	35.8
529.57	35.73
529.909	35.56
530.248	35.47
530.587	35.36
530.927	35.31
531.266	35.17
531.605	34.91
531.944	34.8
532.283	34.81
532.621	34.94
532.96	34.92
533.299	34.88
533.638	34.62
533.977	34.49
534.315	34.39
534.654	34.17
534.992	34.1
535.331	34.02
535.67	33.82
536.008	33.63
536.346	33.41
536.685	33.36
537.023	33.28
537.361	33.07
537.7	32.92
538.038	33
538.376	32.92
538.714	32.87
539.052	32.87
539.39	32.88
539.728	32.81
540.066	32.67
540.404	32.64
540.741	32.6
541.079	32.44
541.417	32.49
541.755	32.41
542.092	32.45
542.43	32.5
542.767	32.33
543.105	32.34
543.442	32.25
543.78	32.17
544.117	32.14
544.454	32.1
544.792	32.15
545.129	32.12
545.466	32.02
545.803	32.3
546.14	32.51
546.477	32.28
546.814	32.36
547.151	32.33
547.488	32.35
547.825	32.13
548.162	32.15
548.499	32.26
548.835	32.26
549.172	32.21
549.509	32.22
549.845	31.94
550.182	31.89
550.518	31.66
550.855	31.52
551.191	31.71
551.528	31.67
551.864	31.75
552.2	31.71
552.537	31.66
552.873	31.77
553.209	31.72
553.545	31.73
553.881	31.78
554.217	31.59
554.553	31.55
554.889	31.54
555.225	31.61
555.561	31.56
555.896	31.26
556.232	31.34
556.568	31.29
556.903	31.17
557.239	31.28
557.575	31.29
557.91	31.23
558.245	31.36
558.581	31.5
558.916	31.71
559.252	31.69
559.587	31.56
559.922	31.57
560.257	31.59
560.592	31.78
560.928	31.73
561.263	31.68
561.598	31.79
561.933	31.75
562.267	31.89
562.602	31.84
562.937	31.82
563.272	31.95
563.607	31.81
563.941	31.76
564.276	31.87
564.611	31.85
564.945	31.84
565.28	31.98
565.614	31.97
565.949	31.92
566.283	32.06
566.617	32.09
566.951	32.12
567.286	32.15
567.62	32.29
567.954	32.45
568.288	32.51
568.622	32.39
568.956	32.4
569.29	32.49
569.624	32.53
569.958	32.48
570.292	32.55
570.626	32.52
570.959	32.52
571.293	32.51
571.627	32.6
571.96	32.71
572.294	32.83
572.627	33
572.961	33.09
573.294	33.08
573.627	33.14
573.961	33.12
574.294	33.21
574.627	33.37
574.961	33.31
575.294	33.29
575.627	33.24
575.96	33.24
576.293	33.19
576.626	33.17
576.959	33.29
577.292	33.3
577.624	33.36
577.957	33.33
578.29	33.39
578.623	33.44
578.955	33.49
579.288	33.6
579.62	33.73
579.953	33.77
580.285	33.82
580.618	33.85
580.95	33.8
581.282	33.88
581.615	33.97
581.947	34.03
582.279	34.1
582.611	34.19
582.943	34.11
583.275	34.26
583.607	34.36
583.939	34.52
584.271	34.66
584.603	34.77
584.935	34.91
585.267	34.97
585.598	35.03
585.93	35.01
586.262	35.4
586.593	35.5
586.925	35.58
587.256	35.62
587.588	35.61
587.919	35.54
588.25	35.56
588.582	35.62
588.913	35.73
589.244	35.8
589.575	35.91
589.907	35.98
590.238	36.06
590.569	36.11
590.9	36.22
591.231	36.26
591.562	36.44
591.892	36.62
592.223	36.69
592.554	36.65
592.885	36.76
593.215	36.82
593.546	37.01
593.877	37.14
594.207	37.39
594.538	37.31
594.868	37.45
595.198	37.7
595.529	37.75
595.859	37.72
596.189	37.95
596.52	38.08
596.85	38.13
597.18	38.11
597.51	38.2
597.84	38.27
598.17	38.4
598.5	38.42
598.83	38.67
599.16	38.9
599.489	39.09
599.819	39.14
600.149	39.32
600.479	39.6
600.808	39.8
601.138	39.98
601.467	40.15
601.797	40.33
602.126	40.53
602.456	40.69
602.785	40.82
603.114	40.87
603.443	40.82
603.773	41.16
604.102	41.71
604.431	42.01
604.76	42.27
605.089	42.4
605.418	42.69
605.747	43.04
606.076	43.19
606.405	43.43
606.733	43.74
607.062	43.97
607.391	44
607.72	44.3
608.048	44.7
608.377	44.8
608.705	45.03
609.034	45.28
609.362	45.63
609.69	46.04
610.019	46.32
610.347	46.58
610.675	46.68
611.004	46.87
611.332	47.31
611.66	47.76
611.988	47.95
612.316	47.84
612.644	47.68
612.972	47.91
613.3	48.37
613.627	48.51
613.955	48.72
614.283	49.07
614.611	49.27
614.938	49.44
615.266	49.61
615.593	49.87
615.921	49.96
616.248	50.19
616.576	50.43
616.903	50.64
617.23	50.83
617.558	51.2
617.885	51.52
618.212	51.72
618.539	52.11
618.866	52.42
619.193	52.72
619.52	52.7
619.847	52.78
620.174	53.18
620.501	53.67
620.828	54.03
621.155	54
621.481	53.96
621.808	54.12
622.135	54.23
622.461	54.46
622.788	54.42
623.114	54.71
623.441	54.54
623.767	54.73
624.093	54.95
624.42	54.87
624.746	55.28
625.072	55.88
625.398	56.14
625.725	56.04
626.051	55.78
626.377	55.87
626.703	55.74
627.029	55.85
627.354	56
627.68	56.34
628.006	56.45
628.332	56.62
628.658	56.73
628.983	57.55
629.309	58.03
629.634	58.62
629.96	58.83
630.285	59.22
630.611	59.17
630.936	60.12
631.262	60.37
631.587	60.8
631.912	60.91
632.237	61.56
632.562	62.52
632.887	62.14
633.213	61.64
633.538	62.26
633.863	62.8
634.187	63.27
634.512	63.35
634.837	63.62
635.162	63.67
635.487	63.76
635.811	63.84
636.136	64.63
636.461	64.4
636.785	64.6
637.11	64.63
637.434	64.29
637.758	64.18
638.083	64.77
638.407	64.7
638.731	64.79
639.056	64.86
639.38	64.07
639.704	64.59
640.028	64.75
640.352	64.37
640.676	62.96
641	63.98
641.324	63.75
641.648	63.27
641.972	62.82
642.295	62.79
642.619	63.07
642.943	62.8
643.266	62.31
643.59	62.48
643.913	62.35
644.237	61.77
644.56	61.76
644.884	61.7
645.207	61.29
645.53	61.58
645.854	61.25
646.177	61.45
646.5	61.55
646.823	61.47
647.146	60.94
647.469	61.91
647.792	62.15
648.115	62.62
648.438	63.11
648.761	65.28
649.084	66.27
649.406	66.62
649.729	66.18
650.052	65.81
650.374	65.92
650.697	65.9
651.019	65.9
651.342	66.26
651.664	66.5
651.987	66.59
652.309	66.69
652.631	66.84
652.953	66.88
653.276	66.91
653.598	67.46
653.92	67.43
654.242	67.43
654.564	67.41
654.886	67.54
655.208	67.62
655.53	67.23
655.851	67.15
656.173	67.18
656.495	67.32
656.816	66.91
657.138	66.64
657.46	66.32
657.781	67.95
658.103	70.23
658.424	70.7
658.746	71.41
659.067	71.76
659.388	71.46
659.709	71.12
660.031	71.24
660.352	71.01
660.673	71.17
660.994	70.74
661.315	71.23
661.636	69.49
661.957	70.36
662.278	70.39
662.599	70.39
662.919	70.65
663.24	70.72
663.561	71.91
663.881	72.21
664.202	71.54
664.523	70.23
664.843	69.83
665.164	69.04
665.484	69.41
665.804	69.03
666.125	68.31
666.445	67.93
666.765	67.93
667.085	68.45
667.405	69.07
667.726	68.98
668.046	68.84
668.366	68.96
668.686	69.23
669.005	69.11
669.325	69.32
669.645	69.04
669.965	68.91
670.285	68.55
670.604	69.03
670.924	68.7
671.243	69.25
671.563	69.08
671.882	68.55
672.202	69.03
672.521	69.63
672.841	69.77
673.16	69.84
673.479	70.17
673.798	69.93
674.117	70.59
674.437	70.79
674.756	70.54
675.075	69.85
675.394	69.64
675.713	69.87
676.031	70.44
676.35	70.91
676.669	70.23
676.988	70.25
677.306	69.02
677.625	69.64
677.944	69.86
678.262	70.25
678.581	69.91
678.899	70.34
679.218	69.92
679.536	70.48
679.854	70.43
680.172	70.23
680.491	69.91
680.809	69.93
681.127	70.42
681.445	70.4
681.763	70.62
682.081	69.99
682.399	70.72
682.717	70.63
683.035	70.87
683.352	71.27
683.67	70.75
683.988	70.86
684.306	71.06
684.623	70.42
684.941	71.59
685.258	72.13
685.576	72.67
685.893	73.04
686.211	73.37
686.528	74.84
686.845	74.05
687.162	73.99
687.48	73.79
687.797	75.23
688.114	75.4
688.431	75.24
688.748	74.42
689.065	73.45
689.382	73.68
689.699	73.68
690.015	74.19
690.332	74.55
690.649	74.84
690.966	74.83
691.282	74.62
691.599	74.56
691.915	73.43
692.232	73.81
692.548	75.12
692.865	75.07
693.181	75.96
693.497	75.08
693.813	74.28
694.13	73.56
694.446	71.89
694.762	72.73
695.078	74.11
695.394	74.36
695.71	72.88
696.026	72.91
696.342	73.7
696.658	74.9
696.973	74.53
697.289	74.28
697.605	73.48
697.92	73.19
698.236	72.86
698.551	72.32
698.867	72.71
699.182	73.14
699.498	73.57
699.813	74.89
700.128	74.03
700.444	72.95
700.759	71.87
701.074	70.91
701.389	70.23
701.704	69.8
702.019	69.93
702.334	69.65
702.649	69.43
702.964	68.97
703.279	68.94
703.594	69.56
703.908	68.67
704.223	67.95
704.538	68.34
704.852	70.44
705.167	70.56
705.481	71.52
705.796	71.17
706.11	70.26
706.425	70.2
706.739	69.37
707.053	68.73
707.368	70.29
707.682	69
707.996	67.73
708.31	67.44
708.624	67.22
708.938	68.07
709.252	68.99
709.566	69.58
709.88	69.07
710.193	70.63
710.507	70.53
710.821	70.31
711.135	69.75
711.448	68.85
711.762	69.73
712.075	69.3
712.389	68.28
712.702	66.27
713.015	66.72
713.329	66.04
713.642	66.49
713.955	66.72
714.269	67.92
714.582	69.26
714.895	68.69
715.208	68.11
715.521	69.19
715.834	70.95
716.147	72.12
716.459	73.27
716.772	72.25
717.085	72.17
717.398	72.55
717.71	73.47
718.023	71.6
718.336	71.07
718.648	72.03
718.961	72.79
719.273	74.88
719.585	76.64
719.898	77.9
720.21	78.1
720.522	79.33
720.834	78.16
721.147	79.26
721.459	80.04
721.771	80.07
722.083	79.46
722.395	79.55
722.707	79.95
723.019	78.6
723.33	78.8
723.642	78.42
723.954	77.54
724.265	76.96
724.577	79.17
724.889	77.54
725.2	76.45
725.512	75.82
725.823	77.95
726.135	78.28
726.446	77.81
726.757	75.59
727.068	74.99
727.38	73.5
727.691	72.11
728.002	71.3
728.313	70.12
728.624	70.43
728.935	70.22
729.246	70.66
729.557	70.88
729.867	71.18
730.178	71.55
730.489	71.56
730.8	71.24
731.11	71.17
731.421	70.64
731.731	71.46
732.042	72.02
732.352	69.61
732.663	70.66
732.973	71.55
733.283	71.88
733.594	71.06
733.904	70.63
734.214	70.06
734.524	71.6
734.834	71.42
735.144	71.85
735.454	73.02
735.764	75.04
736.074	75.51
736.384	75.39
736.694	74.44
737.003	73.67
737.313	73.91
737.623	74.88
737.932	72.89
738.242	73
738.551	72.82
738.861	72.72
739.17	74.24
739.479	73.74
739.789	73.38
740.098	74.14
740.407	74.1
740.716	74.3
741.025	72.57
741.334	72.44
741.643	74.76
741.952	77.12
742.261	78.1
742.57	78.98
742.879	76.49
743.188	75.8
743.497	74.31
743.805	74.94
744.114	75.75
744.422	77.48
744.731	76.77
745.04	73.59
745.348	72.34
745.656	74.74
745.965	74.73
746.273	75.24
746.581	72.66
746.889	69.47
747.198	68.01
747.506	69.38
747.814	69.14
748.122	67.68
748.43	65.43
748.738	66.94
749.046	64.49
749.353	63.67
749.661	61.89
749.969	62.24
750.277	61.63
750.584	61.14
750.892	62.67
751.199	63.4
751.507	63.54
751.814	62.42
752.122	64.01
752.429	64.15
752.736	66.31
753.044	64.61
753.351	64.83
753.658	64.24
753.965	63.72
754.272	66.03
754.579	67.37
754.886	68.79
755.193	67.88
755.5	69.31
755.807	69.5
756.114	69.18
756.42	68.29
756.727	69.57
757.034	69.76
757.34	71.05
757.647	70.87
757.953	72.63
758.26	73.11
758.566	72.29
758.872	70.58
759.179	72.74
759.485	74.07
759.791	71.65
760.097	70.18
760.403	72.03
760.709	72.52
761.015	70.33
761.321	72.33
761.627	74.44
761.933	72.72
762.239	71.9
762.545	70.54
762.851	70.86
763.156	68.1
763.462	71.18
763.767	74.57
764.073	78.61
764.378	78.22
764.684	79.97
764.989	79.82
765.295	78.03
765.6	74.39
765.905	77.95
766.21	78.28
766.515	81.62
766.821	78.31
767.126	75.28
767.431	79.6
767.736	85.66
768.041	76.23
768.345	78.69
768.65	82.85
768.955	84.24
769.26	83.84
769.564	85.04
769.869	84.16
770.174	86.24
770.478	89.82
770.783	93.97
771.087	94.27
771.391	95.06
771.696	87.15
772	89.45
772.304	92.19
772.608	90.7
772.913	92.93
773.217	95.95
773.521	93.67
773.825	94.13
774.129	92.94
774.433	94.73
774.736	94.73
775.04	90.64
775.344	84.33
775.648	86.75
775.951	84.08
776.255	82.09
776.559	78.96
776.862	81.89
777.166	84.48
777.469	82.2
777.772	84.34
778.076	83.29
778.379	79.38
778.682	78.45
778.985	75.9
779.289	77.71
779.592	74.91
779.895	68.72
780.198	72.69
780.501	73.77
780.804	70.71
781.106	67.87
781.409	68.37
781.712	68.68
782.015	67.71
782.317	71.06
782.62	73.51
782.923	78.69
783.225	82.22
783.527	82.78
783.83	84.38
784.132	87.07
784.435	81.17
784.737	80.09
785.039	85.25
785.341	86.06
785.643	77.29
785.945	84.74
786.248	79.97
786.55	81.12
786.851	87.53
787.153	85.99
787.455	83.15
787.757	75.64
788.059	71.71
788.36	76.36
788.662	83.1
788.964	84.83
789.265	80.06
789.567	76.59
789.868	74.82
790.17	77.9
790.471	73.18
790.772	71.7
791.074	73.2
791.375	73.8
791.676	72.57
791.977	71.57
792.278	71.04
792.579	72.71
792.88	67.31
793.181	73.67
793.482	64.38
793.783	69.14
794.083	67.82
794.384	64.19
794.685	62.5
794.986	66.28
795.286	63.47
795.587	61.51
795.887	54.97
796.188	48.96
796.488	44.93
796.788	43.2
797.089	45.06
797.389	42.39
797.689	37.47
797.989	38.06
798.289	34.54
798.589	32.3
798.889	21.22
799.189	20.37
799.489	18.64
799.789	12.79
800.089	9.75
800.389	12.88
800.688	11.53
800.988	18.89
801.288	15.63
801.587	7.61
801.887	6.36
802.186	14.15
802.486	10.43
802.785	15.37
803.085	25.07
803.384	37.88
803.683	38.4
803.982	29.05
804.281	16.17
804.58	12.99
804.879	37.63
805.178	71.76
805.477	61.78
805.776	129.96
806.075	120.3
806.374	115.71
806.673	54.47
806.971	28.81
807.27	47.8
807.569	118.89
807.867	192.99
808.166	220.11
808.464	235.49
808.763	182.91
809.061	145.44
809.359	193.83
809.658	135.81
809.956	238.45
810.254	173.79
810.552	215.62
810.85	234.48
811.148	313.22
811.446	259.2
811.744	254.15
812.042	231.72
812.34	202.61
812.638	167.39
812.935	195.61
813.233	169.12
813.531	241
813.828	210.88
814.126	244.78
814.423	250.07
814.721	350.28
815.018	270.74
815.316	230.64
815.613	289.48
815.91	299.14
816.207	250.08
816.504	213.25
816.802	222.07
817.099	305.52
817.396	219.81
817.693	247.67
817.99	241.12
818.286	389.35
818.583	323.68
818.88	340.64
819.177	341.23
819.473	285.74
819.77	233.08
820.067	174.8
820.363	118.45
820.66	94.52
820.956	96.9
821.252	96.17
821.549	103.36
821.845	91.14
822.141	84.81
822.437	83.81
822.734	94.11
823.03	82.53
823.326	87.88
823.622	75.89
823.918	69.84
824.213	101.85
824.509	116.15
824.805	113.14
825.101	96.47
825.397	91.43
825.692	61.48
825.988	67.25
826.283	56.65
826.579	67.62
826.874	79.23
827.17	97.53
827.465	97.49
827.76	175.99
828.056	256.04
828.351	105.78
828.646	103.05
828.941	98.94
829.236	121.42
829.531	57.63
829.826	61.51
830.121	60.9
830.416	60.96
830.711	66.32
831.006	78.99
831.3	77.27
831.595	61.6
831.89	62.16
832.184	87.76
832.479	89.25
832.773	95.56
833.068	112.86
833.362	106.36
833.656	141.02
833.951	123.29
834.245	107.43
834.539	90.4
834.833	137.72
835.127	92.94
835.421	79.77
835.715	98.77
836.009	126.25
836.303	114.87
836.597	121.32
836.891	155.75
837.185	230.83
837.478	605.18
837.772	350.46
838.066	344.52
838.359	478.17
838.653	421.29
838.946	373.7
839.24	300.19
839.533	207.87
839.826	163.35
840.119	159.57
840.413	168.59
840.706	152.64
840.999	103.01
841.292	99.09
841.585	96.25
841.878	84.27
842.171	82.64
842.464	106.68
842.757	151.77
843.049	198.48
843.342	157.1
843.635	139.85
843.927	133.76
844.22	130.68
844.513	123.34
844.805	115.44
845.098	116.67
845.39	128.4
845.682	115.91
845.975	96.86
846.267	104.63
846.559	103.73
846.851	70.91
847.143	85.75
847.435	105.1
847.727	112.9
848.019	138.53
848.311	148.52
848.603	129.82
848.895	134.57
849.186	145.14
849.478	128.83
849.77	114.49
850.061	104.12
850.353	105.76
850.645	104.63
850.936	97.14
851.227	105.01
851.519	97.72
851.81	93.5
852.101	82.42
852.393	91.27
852.684	82.62
852.975	77.53
853.266	79.83
853.557	68.36
853.848	69.11
854.139	92.81
854.43	90.87
854.72	77.43
855.011	68.62
855.302	56.77
855.593	48.54
855.883	51.1
856.174	54.51
856.464	60.25
856.755	69.34
857.045	61.26
857.336	55.11
857.626	35.12
857.916	33.06
858.206	42.76
858.497	44.69
858.787	36.16
859.077	-15.93
859.367	-49.97
859.657	-3.4
859.947	14.54
860.237	13.84
860.527	42.26
860.816	70.54
861.106	96.03
861.396	106.3
861.685	99.89
861.975	124.77
862.265	166.15
862.554	145.92
862.844	146.65
863.133	143.06
863.422	125.85
863.712	90.77
864.001	58.94
864.29	68.95
864.579	67.9
864.868	77.96
865.157	80.59
865.446	74.6
865.735	62.04
866.024	75.12
866.313	83.35
866.602	98.62
866.891	87.87
867.179	100.29
867.468	92.5
