Data from T2_Reflection__48__00-52-28-927.txt Node

Date: Fri Jun 04 00:52:28 CEST 2021
User: mabdelazizm
Spectrometer: FLMS18565
Trigger mode: 0
Integration Time (sec): 2.000000E0
Scans to average: 1
Electric dark correction enabled: true
Nonlinearity correction enabled: false
Boxcar width: 12
XAxis mode: Wavelengths
Number of Pixels in Spectrum: 2048
>>>>>Begin Spectral Data<<<<<
179.071	282.51
179.452	58.23
179.833	128.14
180.214	950
180.595	39.02
180.977	42.36
181.358	510.2
181.739	90.91
182.12	-64.14
182.501	-24.15
182.882	25.84
183.262	37.87
183.643	16
184.024	-3.21
184.405	-7.82
184.786	16.13
185.166	38.93
185.547	34.4
185.927	48.2
186.308	45.23
186.689	46.44
187.069	42.53
187.449	48.87
187.83	43.54
188.21	45.06
188.59	49.73
188.971	47.88
189.351	49.76
189.731	48.08
190.111	46.42
190.491	49.34
190.871	51.08
191.251	51.75
191.631	60.19
192.011	55.25
192.391	50.45
192.771	49.04
193.151	51.09
193.531	49.35
193.91	49.43
194.29	48.45
194.67	47.47
195.049	48.67
195.429	49.27
195.808	49.61
196.188	49.45
196.567	49.59
196.946	48.63
197.326	45.32
197.705	44.04
198.084	39.02
198.464	38.59
198.843	37.85
199.222	38.66
199.601	35.35
199.98	34.12
200.359	32.22
200.738	33.05
201.117	30.57
201.496	30.74
201.875	30.73
202.254	29.25
202.632	28.53
203.011	31.79
203.39	31.39
203.768	28.49
204.147	29.11
204.525	27.77
204.904	24.45
205.282	21.61
205.661	21.01
206.039	19.64
206.418	19.81
206.796	21.65
207.174	23.22
207.552	24.59
207.931	23.24
208.309	23.09
208.687	22.14
209.065	25.24
209.443	26.84
209.821	26.72
210.199	24.8
210.577	24.43
210.954	24.17
211.332	23.07
211.71	23.5
212.088	23.19
212.465	22.6
212.843	23.67
213.221	23.41
213.598	23.48
213.976	21.95
214.353	24.04
214.731	25.24
215.108	25.28
215.485	25.65
215.863	24.38
216.24	22.22
216.617	19.86
216.994	20.5
217.371	20.2
217.749	21.3
218.126	18.82
218.503	16.73
218.88	14.79
219.256	15.56
219.633	14.14
220.01	14.11
220.387	15.83
220.764	17.01
221.14	16.72
221.517	16.52
221.894	16.12
222.27	14.05
222.647	13.85
223.023	12.42
223.4	12.56
223.776	10.99
224.153	10.36
224.529	9.26
224.905	7.64
225.282	7.83
225.658	8.12
226.034	8.2
226.41	7.57
226.786	7.08
227.162	6.58
227.538	6.87
227.914	6.74
228.29	6.24
228.666	5.7
229.042	5.89
229.418	5.64
229.793	4.8
230.169	4.25
230.545	4.34
230.92	4.21
231.296	4.32
231.672	4.58
232.047	4.38
232.422	4.38
232.798	4.22
233.173	4.11
233.549	4.08
233.924	4.08
234.299	4.56
234.674	4.48
235.05	4.57
235.425	4.52
235.8	4.37
236.175	4.41
236.55	4.25
236.925	4.22
237.3	3.91
237.675	3.84
238.049	3.77
238.424	3.77
238.799	3.61
239.174	3.61
239.548	3.59
239.923	3.41
240.297	3.24
240.672	3.02
241.046	2.95
241.421	3.01
241.795	2.95
242.17	2.92
242.544	2.79
242.918	2.7
243.293	2.69
243.667	2.72
244.041	2.6
244.415	2.47
244.789	2.48
245.163	2.45
245.537	2.39
245.911	2.35
246.285	2.27
246.659	2.35
247.033	2.31
247.406	2.36
247.78	2.3
248.154	2.33
248.528	2.4
248.901	2.43
249.275	2.39
249.648	2.49
250.022	2.49
250.395	2.52
250.769	2.44
251.142	2.47
251.515	2.41
251.888	2.5
252.262	2.51
252.635	2.55
253.008	2.48
253.381	2.47
253.754	2.43
254.127	2.4
254.5	2.36
254.873	2.33
255.246	2.36
255.619	2.43
255.992	2.43
256.364	2.46
256.737	2.44
257.11	2.43
257.483	2.31
257.855	2.26
258.228	2.22
258.6	2.25
258.973	2.17
259.345	2.13
259.718	2.06
260.09	2.09
260.462	2.01
260.834	2.09
261.207	2.14
261.579	2.18
261.951	2.12
262.323	2.07
262.695	2
263.067	2.06
263.439	2.04
263.811	2.08
264.183	2.05
264.555	2.04
264.927	1.97
265.298	1.99
265.67	1.98
266.042	1.92
266.413	1.83
266.785	1.93
267.156	1.94
267.528	1.93
267.899	1.91
268.271	1.95
268.642	1.94
269.013	2.04
269.385	2.01
269.756	2.03
270.127	2
270.498	1.97
270.87	1.91
271.241	1.85
271.612	1.77
271.983	1.8
272.354	1.74
272.724	1.71
273.095	1.7
273.466	1.7
273.837	1.65
274.208	1.67
274.578	1.59
274.949	1.53
275.32	1.57
275.69	1.57
276.061	1.58
276.431	1.6
276.802	1.63
277.172	1.67
277.542	1.61
277.913	1.66
278.283	1.64
278.653	1.65
279.023	1.63
279.394	1.6
279.764	1.56
280.134	1.58
280.504	1.66
280.874	1.7
281.244	1.7
281.614	1.7
281.983	1.63
282.353	1.62
282.723	1.66
283.093	1.7
283.462	1.77
283.832	1.85
284.202	1.85
284.571	1.76
284.941	1.86
285.31	1.85
285.68	1.86
286.049	1.82
286.418	1.76
286.788	1.8
287.157	1.8
287.526	1.75
287.895	1.72
288.264	1.7
288.633	1.62
289.002	1.61
289.371	1.58
289.74	1.49
290.109	1.48
290.478	1.54
290.847	1.55
291.216	1.63
291.585	1.56
291.953	1.5
292.322	1.52
292.691	1.44
293.059	1.42
293.428	1.41
293.796	1.46
294.165	1.4
294.533	1.36
294.901	1.3
295.27	1.31
295.638	1.36
296.006	1.28
296.374	1.26
296.743	1.3
297.111	1.41
297.479	1.42
297.847	1.46
298.215	1.43
298.583	1.36
298.95	1.37
299.318	1.43
299.686	1.33
300.054	1.24
300.422	1.23
300.789	1.31
301.157	1.3
301.525	1.24
301.892	1.21
302.26	1.21
302.627	1.25
302.994	1.24
303.362	1.23
303.729	1.3
304.097	1.27
304.464	1.26
304.831	1.2
305.198	1.21
305.565	1.17
305.932	1.08
306.299	0.96
306.666	1
307.033	1.01
307.4	1.03
307.767	1.04
308.134	1.05
308.501	0.95
308.867	0.94
309.234	0.98
309.601	0.97
309.967	0.91
310.334	0.91
310.701	0.87
311.067	0.91
311.433	0.93
311.8	0.95
312.166	0.91
312.533	0.92
312.899	0.88
313.265	0.84
313.631	0.85
313.997	0.84
314.363	0.82
314.729	0.83
315.096	0.85
315.461	0.87
315.827	0.86
316.193	0.83
316.559	0.78
316.925	0.85
317.291	0.82
317.656	0.9
318.022	0.99
318.388	0.96
318.753	0.96
319.119	1.01
319.484	1.03
319.85	1.04
320.215	1.07
320.581	1.04
320.946	1.01
321.311	1.01
321.676	0.98
322.042	0.95
322.407	0.92
322.772	0.88
323.137	0.95
323.502	0.99
323.867	1.02
324.232	0.99
324.597	1.02
324.962	1.03
325.327	1.08
325.691	1.2
326.056	1.1
326.421	1.13
326.785	1.1
327.15	1.03
327.514	1.07
327.879	1.09
328.243	1.08
328.608	1.11
328.972	1.11
329.337	0.99
329.701	0.92
330.065	0.94
330.429	0.95
330.794	0.92
331.158	0.98
331.522	1.12
331.886	1.11
332.25	1.04
332.614	1.01
332.978	0.98
333.342	1.09
333.705	1.13
334.069	1.11
334.433	1.05
334.797	0.93
335.16	0.99
335.524	0.99
335.887	0.92
336.251	0.94
336.614	0.99
336.978	0.94
337.341	0.9
337.705	0.82
338.068	0.93
338.431	0.97
338.794	0.94
339.158	0.95
339.521	0.92
339.884	1.01
340.247	0.88
340.61	0.82
340.973	0.81
341.336	0.79
341.699	0.87
342.062	0.88
342.424	0.71
342.787	0.63
343.15	0.57
343.512	0.66
343.875	0.7
344.238	0.66
344.6	0.63
344.963	0.66
345.325	0.62
345.688	0.53
346.05	0.53
346.412	0.5
346.775	0.63
347.137	0.58
347.499	0.68
347.861	0.72
348.223	0.75
348.585	0.82
348.947	0.76
349.309	0.83
349.671	0.79
350.033	0.87
350.395	0.85
350.757	0.88
351.118	0.89
351.48	1.02
351.842	0.93
352.203	0.95
352.565	0.87
352.927	0.9
353.288	0.92
353.65	0.93
354.011	0.97
354.372	0.99
354.734	1.06
355.095	1.1
355.456	1.14
355.817	1.06
356.179	1.04
356.54	0.99
356.901	1
357.262	0.9
357.623	0.86
357.984	0.91
358.345	0.94
358.705	0.97
359.066	0.85
359.427	0.94
359.788	0.89
360.148	0.89
360.509	0.76
360.87	0.8
361.23	0.83
361.591	0.82
361.951	0.89
362.312	0.99
362.672	1.01
363.032	1
363.393	0.93
363.753	0.87
364.113	0.89
364.473	0.97
364.833	0.92
365.193	0.88
365.553	0.85
365.913	0.81
366.273	0.88
366.633	0.87
366.993	0.88
367.353	0.84
367.713	0.77
368.072	0.85
368.432	0.72
368.792	0.71
369.151	0.74
369.511	0.84
369.87	0.91
370.23	0.97
370.589	0.99
370.949	0.93
371.308	0.88
371.667	0.89
372.027	0.87
372.386	0.96
372.745	0.97
373.104	0.92
373.463	0.84
373.822	0.89
374.181	0.9
374.54	0.88
374.899	0.95
375.258	0.89
375.617	0.96
375.975	0.99
376.334	1
376.693	1.12
377.052	1.13
377.41	1.28
377.769	1.21
378.127	1.19
378.486	1.16
378.844	1.25
379.202	1.26
379.561	1.16
379.919	1.09
380.277	1.07
380.636	1.06
380.994	1.13
381.352	1.19
381.71	1.23
382.068	1.29
382.426	1.27
382.784	1.39
383.142	1.46
383.5	1.58
383.857	1.6
384.215	1.67
384.573	1.74
384.931	1.65
385.288	1.71
385.646	1.67
386.003	1.76
386.361	1.71
386.718	1.82
387.076	1.83
387.433	1.8
387.791	1.71
388.148	1.71
388.505	1.9
388.862	2.02
389.22	2.11
389.577	2.2
389.934	2.21
390.291	2.32
390.648	2.41
391.005	2.55
391.362	2.75
391.718	2.75
392.075	2.74
392.432	2.85
392.789	2.93
393.145	2.98
393.502	3.06
393.859	3.26
394.215	3.28
394.572	3.44
394.928	3.45
395.285	3.57
395.641	3.72
395.997	3.91
396.354	4.17
396.71	4.38
397.066	4.48
397.422	4.73
397.778	4.99
398.134	5.18
398.491	5.37
398.846	5.56
399.202	5.8
399.558	5.98
399.914	6.12
400.27	6.26
400.626	6.46
400.981	6.8
401.337	7
401.693	7.3
402.048	7.64
402.404	7.96
402.759	8.27
403.115	8.64
403.47	8.93
403.826	9.34
404.181	9.71
404.536	10.03
404.892	10.33
405.247	10.66
405.602	11.14
405.957	11.57
406.312	11.89
406.667	12.18
407.022	12.57
407.377	13.05
407.732	13.57
408.087	13.88
408.442	14.4
408.796	14.88
409.151	15.4
409.506	15.97
409.86	16.38
410.215	17
410.57	17.64
410.924	18.14
411.279	18.62
411.633	19.19
411.987	19.86
412.342	20.42
412.696	21.08
413.05	21.73
413.404	22.3
413.758	23.07
414.113	23.7
414.467	24.17
414.821	24.82
415.175	25.54
415.529	26.26
415.882	26.79
416.236	27.39
416.59	28
416.944	28.65
417.298	29.27
417.651	29.73
418.005	30.28
418.358	30.94
418.712	31.5
419.065	31.99
419.419	32.45
419.772	32.87
420.126	33.43
420.479	33.78
420.832	34.17
421.185	34.56
421.539	34.88
421.892	35.2
422.245	35.7
422.598	35.91
422.951	36.28
423.304	36.63
423.657	36.9
424.01	37.09
424.363	37.51
424.715	38.01
425.068	38.36
425.421	38.63
425.773	39.07
426.126	39.4
426.479	39.76
426.831	40.04
427.184	40.23
427.536	40.64
427.889	40.98
428.241	41.4
428.593	41.73
428.945	41.93
429.298	42.36
429.65	42.56
430.002	42.88
430.354	43.2
430.706	43.57
431.058	43.74
431.41	44.09
431.762	44.44
432.114	44.79
432.466	45.15
432.817	45.49
433.169	45.55
433.521	45.77
433.872	45.94
434.224	46.22
434.576	46.35
434.927	46.5
435.279	46.84
435.63	47.02
435.981	47.3
436.333	47.28
436.684	47.31
437.035	47.17
437.387	47.31
437.738	47.54
438.089	47.6
438.44	47.79
438.791	47.95
439.142	48.05
439.493	48.1
439.844	48.27
440.195	48.4
440.545	48.46
440.896	48.6
441.247	48.69
441.598	48.7
441.948	48.8
442.299	48.92
442.649	49.07
443	49.08
443.35	49.06
443.701	49.04
444.051	49.01
444.401	49.13
444.752	48.93
445.102	49.15
445.452	49.19
445.802	49.3
446.152	49.39
446.502	49.41
446.852	49.33
447.202	49.32
447.552	49.49
447.902	49.46
448.252	49.53
448.602	49.86
448.952	49.88
449.301	49.93
449.651	49.95
450.001	49.91
450.35	49.93
450.7	49.89
451.049	49.88
451.399	49.82
451.748	49.9
452.097	49.97
452.447	49.95
452.796	50.1
453.145	50.24
453.494	50.5
453.843	50.25
454.193	50.28
454.542	50.26
454.891	50.21
455.239	49.99
455.588	50.04
455.937	50.05
456.286	49.86
456.635	49.83
456.984	49.74
457.332	49.26
457.681	49.31
458.03	49.08
458.378	48.84
458.727	48.88
459.075	48.71
459.423	48.82
459.772	48.54
460.12	48.5
460.468	48.31
460.817	48.25
461.165	48.12
461.513	47.93
461.861	47.75
462.209	47.55
462.557	47.6
462.905	47.51
463.253	47.46
463.601	47.32
463.949	47.3
464.297	47.24
464.644	47.1
464.992	46.98
465.34	47.01
465.687	47.04
466.035	46.9
466.383	46.65
466.73	46.66
467.078	46.56
467.425	46.36
467.772	46.36
468.12	46.18
468.467	46.15
468.814	46.09
469.161	46.04
469.508	45.86
469.856	45.91
470.203	45.71
470.55	45.36
470.897	45.06
471.243	44.84
471.59	44.58
471.937	44.53
472.284	44.47
472.631	44.28
472.977	44.12
473.324	44.04
473.671	43.81
474.017	43.49
474.364	43.27
474.71	42.97
475.057	42.77
475.403	42.58
475.749	42.41
476.096	42.34
476.442	42.25
476.788	42.06
477.134	41.94
477.48	41.62
477.826	41.32
478.172	41.05
478.518	40.81
478.864	40.63
479.21	40.55
479.556	40.38
479.902	40.16
480.248	39.98
480.593	39.73
480.939	39.49
481.285	39.37
481.63	39.22
481.976	38.98
482.321	38.8
482.667	38.74
483.012	38.56
483.357	38.49
483.703	38.29
484.048	38.18
484.393	38.02
484.738	37.79
485.084	37.52
485.429	37.33
485.774	37.15
486.119	36.97
486.464	36.81
486.808	36.71
487.153	36.4
487.498	36.26
487.843	36
488.188	35.95
488.532	35.84
488.877	35.67
489.222	35.48
489.566	35.24
489.911	35.05
490.255	34.84
490.6	34.64
490.944	34.51
491.288	34.22
491.633	34.03
491.977	33.79
492.321	33.65
492.665	33.32
493.009	33.09
493.353	32.78
493.697	32.63
494.041	32.53
494.385	32.37
494.729	32.24
495.073	32.04
495.417	31.88
495.76	31.77
496.104	31.54
496.448	31.46
496.791	31.13
497.135	30.91
497.479	30.72
497.822	30.49
498.165	30.35
498.509	30.07
498.852	29.79
499.196	29.69
499.539	29.58
499.882	29.43
500.225	29.16
500.568	28.9
500.911	28.73
501.254	28.59
501.597	28.5
501.94	28.44
502.283	28.33
502.626	28.13
502.969	27.89
503.312	27.79
503.654	27.69
503.997	27.46
504.34	27.34
504.682	27.2
505.025	27.06
505.367	26.94
505.71	26.75
506.052	26.61
506.395	26.51
506.737	26.39
507.079	26.29
507.421	26.21
507.764	25.97
508.106	25.71
508.448	25.57
508.79	25.51
509.132	25.46
509.474	25.29
509.816	25.14
510.158	24.99
510.499	24.77
510.841	24.48
511.183	24.32
511.525	24.2
511.866	24.16
512.208	24.05
512.549	23.97
512.891	23.95
513.232	23.83
513.574	23.73
513.915	23.61
514.256	23.53
514.598	23.44
514.939	23.17
515.28	22.94
515.621	22.77
515.962	22.69
516.303	22.7
516.644	22.62
516.985	22.43
517.326	22.26
517.667	22.16
518.008	22.07
518.349	22
518.69	21.9
519.03	21.85
519.371	21.94
519.712	21.74
520.052	21.67
520.393	21.5
520.733	21.4
521.074	21.22
521.414	20.9
521.754	20.77
522.095	20.52
522.435	20.39
522.775	20.21
523.115	20.24
523.455	20.15
523.795	20.2
524.135	20.18
524.475	19.98
524.815	19.62
525.155	19.52
525.495	19.48
525.835	19.41
526.175	19.45
526.514	19.36
526.854	19.26
527.194	19.1
527.533	18.96
527.873	18.82
528.212	18.78
528.552	18.73
528.891	18.49
529.23	18.46
529.57	18.42
529.909	18.38
530.248	18.31
530.587	18.25
530.927	18.13
531.266	18.03
531.605	17.7
531.944	17.63
532.283	17.5
532.621	17.41
532.96	17.43
533.299	17.52
533.638	17.4
533.977	17.33
534.315	17.22
534.654	16.95
534.992	16.99
535.331	16.89
535.67	16.85
536.008	16.74
536.346	16.57
536.685	16.57
537.023	16.44
537.361	16.34
537.7	16.13
538.038	16.04
538.376	16
538.714	15.94
539.052	15.97
539.39	15.98
539.728	16.06
540.066	16.07
540.404	16.02
540.741	15.97
541.079	15.98
541.417	16.03
541.755	15.97
542.092	15.92
542.43	15.86
542.767	15.86
543.105	15.88
543.442	15.7
543.78	15.72
544.117	15.64
544.454	15.67
544.792	15.74
545.129	15.68
545.466	15.56
545.803	15.67
546.14	15.78
546.477	15.72
546.814	15.75
547.151	15.79
547.488	15.85
547.825	15.78
548.162	15.71
548.499	15.71
548.835	15.77
549.172	15.76
549.509	15.53
549.845	15.31
550.182	15.27
550.518	15.22
550.855	15.33
551.191	15.45
551.528	15.52
551.864	15.62
552.2	15.68
552.537	15.8
552.873	15.77
553.209	15.69
553.545	15.61
553.881	15.78
554.217	15.76
554.553	15.62
554.889	15.63
555.225	15.59
555.561	15.52
555.896	15.34
556.232	15.38
556.568	15.49
556.903	15.47
557.239	15.52
557.575	15.61
557.91	15.68
558.245	15.71
558.581	15.8
558.916	15.83
559.252	15.64
559.587	15.48
559.922	15.49
560.257	15.44
560.592	15.4
560.928	15.39
561.263	15.55
561.598	15.69
561.933	15.7
562.267	15.84
562.602	15.87
562.937	15.93
563.272	16.08
563.607	16.07
563.941	16.28
564.276	16.31
564.611	16.25
564.945	16.2
565.28	16.16
565.614	16.22
565.949	16.19
566.283	16.28
566.617	16.37
566.951	16.39
567.286	16.5
567.62	16.51
567.954	16.62
568.288	16.56
568.622	16.61
568.956	16.75
569.29	16.78
569.624	16.75
569.958	16.77
570.292	16.98
570.626	16.95
570.959	16.96
571.293	17.04
571.627	17.13
571.96	17.26
572.294	17.27
572.627	17.38
572.961	17.53
573.294	17.67
573.627	17.84
573.961	17.82
574.294	17.8
574.627	17.9
574.961	17.9
575.294	17.95
575.627	17.97
575.96	18.09
576.293	18.1
576.626	18.26
576.959	18.36
577.292	18.4
577.624	18.44
577.957	18.51
578.29	18.52
578.623	18.5
578.955	18.51
579.288	18.65
579.62	18.7
579.953	18.72
580.285	18.75
580.618	18.84
580.95	18.82
581.282	18.88
581.615	18.84
581.947	18.84
582.279	18.97
582.611	19.15
582.943	19.16
583.275	19.29
583.607	19.42
583.939	19.55
584.271	19.72
584.603	19.77
584.935	19.7
585.267	19.82
585.598	19.84
585.93	19.93
586.262	20.13
586.593	20.31
586.925	20.39
587.256	20.59
587.588	20.52
587.919	20.65
588.25	20.69
588.582	20.78
588.913	20.91
589.244	21.16
589.575	21.32
589.907	21.49
590.238	21.54
590.569	21.68
590.9	21.79
591.231	21.95
591.562	22.15
591.892	22.27
592.223	22.43
592.554	22.61
592.885	22.89
593.215	23.17
593.546	23.21
593.877	23.3
594.207	23.45
594.538	23.54
594.868	23.66
595.198	23.97
595.529	23.97
595.859	24.18
596.189	24.35
596.52	24.58
596.85	24.67
597.18	24.77
597.51	24.79
597.84	24.89
598.17	25.04
598.5	25.33
598.83	25.52
599.16	25.76
599.489	25.98
599.819	26.18
600.149	26.43
600.479	26.68
600.808	26.83
601.138	27.06
601.467	27.3
601.797	27.71
602.126	28.09
602.456	28.43
602.785	28.7
603.114	29.08
603.443	29.15
603.773	29.68
604.102	30.04
604.431	30.41
604.76	30.79
605.089	31.16
605.418	31.33
605.747	31.78
606.076	32.04
606.405	32.29
606.733	32.65
607.062	32.98
607.391	33.19
607.72	33.56
608.048	33.97
608.377	34.12
608.705	34.54
609.034	34.88
609.362	35.18
609.69	35.53
610.019	35.78
610.347	35.99
610.675	36.35
611.004	36.44
611.332	36.81
611.66	37.19
611.988	37.4
612.316	37.52
612.644	37.58
612.972	37.63
613.3	37.88
613.627	38.2
613.955	38.53
614.283	38.91
614.611	39.22
614.938	39.6
615.266	39.87
615.593	40.36
615.921	40.61
616.248	40.71
616.576	41.35
616.903	41.64
617.23	42.08
617.558	42.53
617.885	42.82
618.212	43.24
618.539	43.78
618.866	43.87
619.193	44.49
619.52	44.44
619.847	44.84
620.174	45.39
620.501	46.15
620.828	46.56
621.155	47.2
621.481	47.78
621.808	48.01
622.135	48.11
622.461	48.48
622.788	48.88
623.114	49.06
623.441	49.22
623.767	49.56
624.093	50
624.42	50.81
624.746	51.43
625.072	51.58
625.398	51.87
625.725	51.95
626.051	52.64
626.377	53.14
626.703	53.36
627.029	54.09
627.354	54.43
627.68	54.81
628.006	55.11
628.332	55.03
628.658	54.91
628.983	55.46
629.309	55.6
629.634	55.53
629.96	55.92
630.285	56.53
630.611	56.82
630.936	56.88
631.262	57.26
631.587	57.74
631.912	57.57
632.237	58.1
632.562	58.44
632.887	58.35
633.213	58.93
633.538	59.65
633.863	60.55
634.187	60.19
634.512	59.68
634.837	59.28
635.162	59.27
635.487	59.13
635.811	58.93
636.136	59.59
636.461	59.86
636.785	60.2
637.11	60.21
637.434	59.83
637.758	60.38
638.083	60.65
638.407	60.55
638.731	60.17
639.056	60.49
639.38	59.78
639.704	60.1
640.028	60.68
640.352	60.47
640.676	59.63
641	60.12
641.324	60.36
641.648	59.61
641.972	60.13
642.295	60.97
642.619	61.61
642.943	61.78
643.266	60.83
643.59	61.16
643.913	61.42
644.237	61.34
644.56	61.41
644.884	62.12
645.207	62.14
645.53	62.51
645.854	62.38
646.177	62.62
646.5	63.25
646.823	63.83
647.146	64.05
647.469	64.63
647.792	65
648.115	64.46
648.438	64.86
648.761	67.23
649.084	67.53
649.406	67.64
649.729	67.5
650.052	67.24
650.374	67.35
650.697	67.57
651.019	67.71
651.342	68.31
651.664	68.52
651.987	68.67
652.309	68.79
652.631	68.97
652.953	69.07
653.276	69.14
653.598	69.4
653.92	69.47
654.242	69.77
654.564	69.71
654.886	69.75
655.208	69.72
655.53	69.56
655.851	69.58
656.173	69.75
656.495	69.95
656.816	69.49
657.138	69.61
657.46	70.16
657.781	72.4
658.103	74.19
658.424	74.97
658.746	74.83
659.067	76.24
659.388	74.95
659.709	74.12
660.031	74.18
660.352	74.12
660.673	73.95
660.994	73.45
661.315	73.9
661.636	73.82
661.957	74.67
662.278	74.16
662.599	73.37
662.919	73.5
663.24	73.6
663.561	75.06
663.881	74.38
664.202	75.5
664.523	73.97
664.843	74.19
665.164	73.77
665.484	73.88
665.804	73.8
666.125	73.05
666.445	72.41
666.765	72.95
667.085	73.42
667.405	74.09
667.726	73.86
668.046	73.77
668.366	74.16
668.686	73.77
669.005	72.99
669.325	73.29
669.645	72.68
669.965	71.87
670.285	71.42
670.604	72.44
670.924	71.76
671.243	72.12
671.563	71.46
671.882	72.12
672.202	71.61
672.521	71.88
672.841	71.8
673.16	72.32
673.479	72.48
673.798	72.35
674.117	73.69
674.437	74.3
674.756	74.95
675.075	74.29
675.394	74.56
675.713	76.07
676.031	76.09
676.35	76.28
676.669	76.2
676.988	76.72
677.306	75.86
677.625	76.2
677.944	76.75
678.262	77.37
678.581	77.28
678.899	78.5
679.218	79.38
679.536	79.64
679.854	79.03
680.172	79.4
680.491	79.88
680.809	79.83
681.127	80.32
681.445	79.41
681.763	80.22
682.081	79.61
682.399	79.46
682.717	78.55
683.035	78.47
683.352	79.34
683.67	79.3
683.988	80.51
684.306	80.77
684.623	80.62
684.941	81.22
685.258	82.13
685.576	82.8
685.893	82.58
686.211	82.44
686.528	83.46
686.845	82.11
687.162	80.68
687.48	81.36
687.797	82.77
688.114	82.35
688.431	83.02
688.748	82.14
689.065	81.66
689.382	83.04
689.699	82.67
690.015	82.85
690.332	83.3
690.649	83.74
690.966	82.7
691.282	82.05
691.599	82.31
691.915	81.11
692.232	80.82
692.548	81.4
692.865	81.52
693.181	81.8
693.497	81.15
693.813	81.17
694.13	80.8
694.446	79.46
694.762	80.55
695.078	81.24
695.394	80.61
695.71	78.74
696.026	79.22
696.342	78.81
696.658	79.44
696.973	78.45
697.289	79.12
697.605	78.82
697.92	78.05
698.236	77.47
698.551	77.3
698.867	78.67
699.182	79.13
699.498	78.88
699.813	79.29
700.128	78.8
700.444	78.34
700.759	77.77
701.074	76.17
701.389	76.76
701.704	76.93
702.019	77.78
702.334	77.39
702.649	77.09
702.964	76.73
703.279	77.82
703.594	78.18
703.908	77.81
704.223	78
704.538	78.33
704.852	80.49
705.167	79.85
705.481	80.52
705.796	80.64
706.11	81.46
706.425	80.35
706.739	79.86
707.053	78.82
707.368	78.78
707.682	79.16
707.996	77.73
708.31	77.9
708.624	77.69
708.938	78.45
709.252	77.83
709.566	78.15
709.88	78.36
710.193	79.64
710.507	80.05
710.821	80.86
711.135	78.64
711.448	79.63
711.762	80
712.075	79.02
712.389	78.53
712.702	76.41
713.015	76.18
713.329	75.69
713.642	75.47
713.955	75.97
714.269	76.97
714.582	77.5
714.895	77.32
715.208	78.04
715.521	77.03
715.834	79.69
716.147	79.58
716.459	81.03
716.772	80.48
717.085	80.74
717.398	80.78
717.71	79.72
718.023	78.87
718.336	77.51
718.648	76.24
718.961	77.38
719.273	79.17
719.585	79.83
719.898	80.84
720.21	82.55
720.522	84.79
720.834	82.24
721.147	81.93
721.459	84.91
721.771	83.42
722.083	82.49
722.395	83.31
722.707	83.4
723.019	81.32
723.33	83.77
723.642	83.84
723.954	83.88
724.265	82.04
724.577	83.27
724.889	83.38
725.2	83.04
725.512	82.96
725.823	84.39
726.135	84.49
726.446	84.57
726.757	83.56
727.068	81.86
727.38	80.98
727.691	79.84
728.002	78.88
728.313	77.93
728.624	79.24
728.935	79.7
729.246	78.02
729.557	77.92
729.867	78.78
730.178	78.06
730.489	78.86
730.8	79.79
731.11	77.42
731.421	75.66
731.731	76.37
732.042	77.17
732.352	76.96
732.663	77.18
732.973	77.41
733.283	78.4
733.594	77.46
733.904	77.82
734.214	78.39
734.524	79.91
734.834	81.21
735.144	82.95
735.454	84.24
735.764	85.23
736.074	85.61
736.384	85.48
736.694	85.29
737.003	87.74
737.313	88.61
737.623	88.75
737.932	88.83
738.242	89.45
738.551	88.38
738.861	90.63
739.17	91.53
739.479	90.37
739.789	90.18
740.098	89.89
740.407	90.66
740.716	90.24
741.025	88.39
741.334	88.02
741.643	88.92
741.952	90.79
742.261	91.42
742.57	90.15
742.879	85.71
743.188	85.62
743.497	86.03
743.805	84.8
744.114	85.38
744.422	88.04
744.731	83
745.04	82.26
745.348	80.54
745.656	80.49
745.965	78.94
746.273	81.19
746.581	81.33
746.889	82.63
747.198	83.39
747.506	81.51
747.814	81.66
748.122	79.36
748.43	78.75
748.738	77.87
749.046	78.81
749.353	79.29
749.661	78.59
749.969	79.32
750.277	79.19
750.584	78.22
750.892	79.15
751.199	76.73
751.507	77.7
751.814	78.41
752.122	77.31
752.429	77.59
752.736	78.35
753.044	78.04
753.351	77.79
753.658	78.24
753.965	77.1
754.272	77.98
754.579	76.64
754.886	77.98
755.193	78.69
755.5	77.56
755.807	79.3
756.114	78.71
756.42	81.13
756.727	82.42
757.034	82.48
757.34	81.72
757.647	80.69
757.953	80.43
758.26	81.21
758.566	80.66
758.872	81.9
759.179	83.81
759.485	83.43
759.791	83.23
760.097	83
760.403	85.15
760.709	87.61
761.015	88.21
761.321	89.17
761.627	89.38
761.933	87.49
762.239	86.74
762.545	85.39
762.851	87.73
763.156	91.46
763.462	92.13
763.767	99.12
764.073	98.98
764.378	96.6
764.684	97.08
764.989	100.27
765.295	98.81
765.6	94.97
765.905	97.25
766.21	97.83
766.515	99.02
766.821	103.27
767.126	105.11
767.431	107.11
767.736	109.91
768.041	101.8
768.345	99.93
768.65	100.78
768.955	101.93
769.26	103.22
769.564	104.09
769.869	104.09
770.174	108
770.478	109.19
770.783	105.28
771.087	104.13
771.391	98.19
771.696	94.32
772	94.77
772.304	95.05
772.608	96.51
772.913	101.88
773.217	102.54
773.521	101.21
773.825	101.55
774.129	97.4
774.433	91.04
774.736	86.22
775.04	84.58
775.344	83.96
775.648	84.26
775.951	86.3
776.255	83.07
776.559	80.88
776.862	84.99
777.166	90.91
777.469	94.25
777.772	99.92
778.076	100.26
778.379	100.81
778.682	99.58
778.985	99.56
779.289	99.29
779.592	97.23
779.895	91.06
780.198	89.86
780.501	84.59
780.804	84.51
781.106	81.95
781.409	83.45
781.712	88.52
782.015	87.17
782.317	98.39
782.62	98.09
782.923	103.2
783.225	108.43
783.527	108.24
783.83	114.23
784.132	112.95
784.435	109.8
784.737	102.12
785.039	98.31
785.341	87.9
785.643	84.43
785.945	84.07
786.248	84.67
786.55	86.95
786.851	93.29
787.153	93.21
787.455	92.24
787.757	89.08
788.059	94.85
788.36	99.23
788.662	102.89
788.964	99.3
789.265	92.47
789.567	91.94
789.868	78.65
790.17	80.24
790.471	70.88
790.772	69.04
791.074	72.59
791.375	69.17
791.676	69.98
791.977	63.29
792.278	62.86
792.579	68.32
792.88	68.47
793.181	70.42
793.482	68.78
793.783	69.07
794.083	67.61
794.384	62.42
794.685	61.22
794.986	67.54
795.286	67.09
795.587	62.07
795.887	63.1
796.188	64.1
796.488	64.86
796.788	65.95
797.089	68.14
797.389	70.44
797.689	68.17
797.989	72.51
798.289	76.07
798.589	74.64
798.889	68.52
799.189	69.27
799.489	73.28
799.789	72.7
800.089	62.5
800.389	62.05
800.688	61.65
800.988	62.12
801.288	69.35
801.587	82.28
801.887	84.5
802.186	94.67
802.486	90.19
802.785	103.07
803.085	118.25
803.384	116.61
803.683	123.51
803.982	119.46
804.281	130.04
804.58	135.46
804.879	184.1
805.178	250.59
805.477	418.7
805.776	324.29
806.075	286.34
806.374	388.19
806.673	232.96
806.971	263.71
807.27	326.84
807.569	436.68
807.867	567.88
808.166	612.21
808.464	612.57
808.763	374.1
809.061	205.16
809.359	210.03
809.658	114.89
809.956	162.38
810.254	97.48
810.552	104.31
810.85	1.76
811.148	-46.73
811.446	-45.84
811.744	27.19
812.042	33.49
812.34	-29.5
812.638	-25.52
812.935	-19.22
813.233	-33.28
813.531	-61.35
813.828	10.98
814.126	34.3
814.423	65.86
814.721	91.3
815.018	62.89
815.316	86.78
815.613	118.78
815.91	146.74
816.207	161.99
816.504	163.55
816.802	193.63
817.099	292.99
817.396	284.49
817.693	251.95
817.99	226.35
818.286	441.42
818.583	310.01
818.88	320.45
819.177	410.92
819.473	279.8
819.77	261.11
820.067	208.95
820.363	146.94
820.66	126.29
820.956	140.68
821.252	136.37
821.549	127.77
821.845	90.48
822.141	82.15
822.437	82.55
822.734	83.83
823.03	72.42
823.326	61.28
823.622	54.39
823.918	48.14
824.213	77.81
824.509	96.44
824.805	88.27
825.101	126.78
825.397	148.31
825.692	113.7
825.988	131.75
826.283	127.82
826.579	156.51
826.874	173.41
827.17	147.29
827.465	134.96
827.76	212
828.056	275.94
828.351	142.71
828.646	130.7
828.941	124.43
829.236	183.49
829.531	228.31
829.826	197.54
830.121	162.25
830.416	164.34
830.711	173.32
831.006	139.72
831.3	152.47
831.595	140.86
831.89	116.52
832.184	127.85
832.479	123.59
832.773	107.4
833.068	101.86
833.362	102.54
833.656	132.09
833.951	99.63
834.245	101.24
834.539	94.12
834.833	112.05
835.127	78.22
835.421	100.17
835.715	126.61
836.009	181.76
836.303	212.1
836.597	181.05
836.891	196.51
837.185	231.38
837.478	618.48
837.772	357.74
838.066	305.44
838.359	437.39
838.653	299.5
838.946	240.25
839.24	233.57
839.533	175.32
839.826	154.87
840.119	161.81
840.413	204.67
840.706	194.95
840.999	141.65
841.292	135.43
841.585	125.04
841.878	134.88
842.171	150.36
842.464	178.36
842.757	183.21
843.049	192.79
843.342	150.22
843.635	118.47
843.927	111.93
844.22	114.43
844.513	106.1
844.805	79.18
845.098	74.42
845.39	76.68
845.682	59.93
845.975	63.43
846.267	72.29
846.559	42.74
846.851	46.83
847.143	41.41
847.435	48.1
847.727	57.19
848.019	57.74
848.311	41.26
848.603	49.03
848.895	59.35
849.186	63.1
849.478	73.01
849.77	78.09
850.061	80.24
850.353	80.92
850.645	76.99
850.936	83.66
851.227	89.96
851.519	85.77
851.81	89.66
852.101	103.86
852.393	113.39
852.684	113.53
852.975	124.96
853.266	129.59
853.557	117.72
853.848	139.36
854.139	153.02
854.43	154.14
854.72	132.3
855.011	120.39
855.302	126.21
855.593	159.62
855.883	193.28
856.174	170.68
856.464	182.24
856.755	183.48
857.045	160.7
857.336	143.4
857.626	141.96
857.916	150.81
858.206	212.52
858.497	311.66
858.787	242.58
859.077	289.97
859.367	269.49
859.657	202.72
859.947	150.97
860.237	149.58
860.527	130.39
860.816	114.53
861.106	83.51
861.396	90.21
861.685	84.91
861.975	90.34
862.265	143.23
862.554	127.8
862.844	106.76
863.133	84.61
863.422	69.66
863.712	28.45
864.001	-6.42
864.29	-22.22
864.579	-21.35
864.868	-11.14
865.157	-8.42
865.446	-6.16
865.735	-14.04
866.024	-22.98
866.313	-12.96
866.602	-16.59
866.891	-35.36
867.179	-76.53
867.468	-41.73
