Data from T2_Reflection__41__00-47-16-937.txt Node

Date: Fri Jun 04 00:47:16 CEST 2021
User: mabdelazizm
Spectrometer: FLMS18565
Trigger mode: 0
Integration Time (sec): 2.000000E0
Scans to average: 1
Electric dark correction enabled: true
Nonlinearity correction enabled: false
Boxcar width: 12
XAxis mode: Wavelengths
Number of Pixels in Spectrum: 2048
>>>>>Begin Spectral Data<<<<<
179.071	-261.88
179.452	-165.4
179.833	-186.83
180.214	-4550
180.595	-200.31
180.977	-220.69
181.358	-2073.47
181.739	387.88
182.12	163.03
182.501	102.05
182.882	83.11
183.262	102.96
183.643	79.88
184.024	55.87
184.405	35.9
184.786	22.75
185.166	34.18
185.547	34.19
185.927	35.98
186.308	43.29
186.689	55.09
187.069	52.83
187.449	48.94
187.83	39.44
188.21	37.7
188.59	49.01
188.971	47.93
189.351	43.61
189.731	38.68
190.111	39.15
190.491	41.26
190.871	38.41
191.251	46.89
191.631	42.76
192.011	39.67
192.391	37.8
192.771	34.95
193.151	33.42
193.531	33.77
193.91	31.8
194.29	33.14
194.67	33.06
195.049	32.63
195.429	32.05
195.808	33.38
196.188	27.97
196.567	25.48
196.946	29.18
197.326	26.82
197.705	26.43
198.084	20.95
198.464	21.32
198.843	21.01
199.222	25.61
199.601	24.43
199.98	25.96
200.359	28.95
200.738	27.23
201.117	29.01
201.496	29.14
201.875	28.85
202.254	27.67
202.632	27.81
203.011	29.51
203.39	29.82
203.768	28.25
204.147	25.51
204.525	24.05
204.904	21.96
205.282	20.25
205.661	21.23
206.039	21.46
206.418	20.21
206.796	22.1
207.174	24.43
207.552	27.61
207.931	25.18
208.309	26.04
208.687	24.42
209.065	23.83
209.443	24.26
209.821	23.34
210.199	22.98
210.577	20.11
210.954	20.85
211.332	19.73
211.71	17.91
212.088	17.06
212.465	15.95
212.843	16.91
213.221	14.9
213.598	17.37
213.976	17.48
214.353	17.54
214.731	16.05
215.108	15.31
215.485	16.11
215.863	14.82
216.24	12.95
216.617	11.59
216.994	10.18
217.371	11.35
217.749	10.22
218.126	7.17
218.503	6.92
218.88	6.2
219.256	6.7
219.633	4.93
220.01	4.68
220.387	5.97
220.764	7.97
221.14	9.63
221.517	9.57
221.894	8.68
222.27	8.2
222.647	8.48
223.023	6.85
223.4	7.04
223.776	6.01
224.153	6.2
224.529	5.99
224.905	5.13
225.282	5.32
225.658	5.15
226.034	4.42
226.41	3.74
226.786	3.17
227.162	3.56
227.538	3.93
227.914	3.69
228.29	3.48
228.666	3.04
229.042	3.16
229.418	3.71
229.793	3.16
230.169	2.79
230.545	2.57
230.92	2.81
231.296	2.93
231.672	2.44
232.047	2.31
232.422	2.55
232.798	2.4
233.173	2.63
233.549	2.64
233.924	2.52
234.299	3.01
234.674	3.13
235.05	3.37
235.425	3.48
235.8	3.41
236.175	3.55
236.55	3.31
236.925	3.28
237.3	3.11
237.675	2.93
238.049	2.83
238.424	2.93
238.799	2.74
239.174	2.81
239.548	2.88
239.923	2.74
240.297	2.63
240.672	2.62
241.046	2.73
241.421	2.77
241.795	2.75
242.17	2.69
242.544	2.57
242.918	2.64
243.293	2.69
243.667	2.7
244.041	2.57
244.415	2.51
244.789	2.47
245.163	2.51
245.537	2.31
245.911	2.33
246.285	2.37
246.659	2.38
247.033	2.4
247.406	2.47
247.78	2.46
248.154	2.53
248.528	2.49
248.901	2.38
249.275	2.35
249.648	2.39
250.022	2.34
250.395	2.35
250.769	2.35
251.142	2.35
251.515	2.35
251.888	2.36
252.262	2.28
252.635	2.33
253.008	2.24
253.381	2.17
253.754	2.12
254.127	2.13
254.5	2.07
254.873	2.1
255.246	2.15
255.619	2.15
255.992	2.21
256.364	2.22
256.737	2.17
257.11	2.15
257.483	2.03
257.855	2.04
258.228	2.04
258.6	2.12
258.973	2.02
259.345	1.98
259.718	1.95
260.09	1.93
260.462	1.83
260.834	1.85
261.207	1.8
261.579	1.86
261.951	1.77
262.323	1.69
262.695	1.66
263.067	1.69
263.439	1.7
263.811	1.76
264.183	1.74
264.555	1.66
264.927	1.67
265.298	1.7
265.67	1.67
266.042	1.63
266.413	1.6
266.785	1.68
267.156	1.69
267.528	1.67
267.899	1.6
268.271	1.65
268.642	1.65
269.013	1.75
269.385	1.73
269.756	1.79
270.127	1.86
270.498	1.89
270.87	1.85
271.241	1.79
271.612	1.76
271.983	1.8
272.354	1.73
272.724	1.68
273.095	1.68
273.466	1.64
273.837	1.73
274.208	1.68
274.578	1.54
274.949	1.49
275.32	1.53
275.69	1.51
276.061	1.49
276.431	1.41
276.802	1.4
277.172	1.44
277.542	1.35
277.913	1.37
278.283	1.32
278.653	1.33
279.023	1.31
279.394	1.19
279.764	1.22
280.134	1.23
280.504	1.27
280.874	1.28
281.244	1.28
281.614	1.28
281.983	1.24
282.353	1.16
282.723	1.23
283.093	1.1
283.462	1.19
283.832	1.27
284.202	1.33
284.571	1.25
284.941	1.29
285.31	1.29
285.68	1.36
286.049	1.39
286.418	1.34
286.788	1.46
287.157	1.46
287.526	1.41
287.895	1.32
288.264	1.31
288.633	1.32
289.002	1.3
289.371	1.3
289.74	1.27
290.109	1.3
290.478	1.34
290.847	1.4
291.216	1.45
291.585	1.48
291.953	1.5
292.322	1.59
292.691	1.49
293.059	1.45
293.428	1.44
293.796	1.47
294.165	1.44
294.533	1.41
294.901	1.37
295.27	1.37
295.638	1.41
296.006	1.26
296.374	1.22
296.743	1.22
297.111	1.4
297.479	1.36
297.847	1.31
298.215	1.38
298.583	1.27
298.95	1.28
299.318	1.3
299.686	1.21
300.054	1.16
300.422	1.08
300.789	1.06
301.157	0.98
301.525	0.9
301.892	0.89
302.26	0.9
302.627	0.92
302.994	0.86
303.362	0.9
303.729	0.95
304.097	0.91
304.464	0.88
304.831	0.8
305.198	0.9
305.565	0.88
305.932	0.86
306.299	0.77
306.666	0.82
307.033	0.79
307.4	0.74
307.767	0.73
308.134	0.75
308.501	0.7
308.867	0.65
309.234	0.59
309.601	0.61
309.967	0.56
310.334	0.59
310.701	0.57
311.067	0.6
311.433	0.66
311.8	0.67
312.166	0.66
312.533	0.58
312.899	0.59
313.265	0.6
313.631	0.57
313.997	0.61
314.363	0.51
314.729	0.5
315.096	0.53
315.461	0.53
315.827	0.52
316.193	0.54
316.559	0.52
316.925	0.62
317.291	0.58
317.656	0.56
318.022	0.62
318.388	0.56
318.753	0.62
319.119	0.71
319.484	0.72
319.85	0.71
320.215	0.7
320.581	0.66
320.946	0.64
321.311	0.71
321.676	0.69
322.042	0.65
322.407	0.66
322.772	0.58
323.137	0.55
323.502	0.61
323.867	0.64
324.232	0.58
324.597	0.6
324.962	0.61
325.327	0.67
325.691	0.7
326.056	0.59
326.421	0.65
326.785	0.66
327.15	0.69
327.514	0.75
327.879	0.72
328.243	0.7
328.608	0.76
328.972	0.85
329.337	0.79
329.701	0.69
330.065	0.75
330.429	0.74
330.794	0.74
331.158	0.77
331.522	0.83
331.886	0.96
332.25	1.01
332.614	0.97
332.978	1.02
333.342	1.1
333.705	1.07
334.069	1.07
334.433	1.03
334.797	0.95
335.16	0.97
335.524	0.95
335.887	0.85
336.251	0.81
336.614	0.84
336.978	0.82
337.341	0.78
337.705	0.71
338.068	0.72
338.431	0.75
338.794	0.78
339.158	0.66
339.521	0.62
339.884	0.68
340.247	0.62
340.61	0.56
340.973	0.47
341.336	0.44
341.699	0.45
342.062	0.37
342.424	0.25
342.787	0.22
343.15	0.09
343.512	0.15
343.875	0.22
344.238	0.24
344.6	0.17
344.963	0.35
345.325	0.3
345.688	0.3
346.05	0.25
346.412	0.33
346.775	0.35
347.137	0.29
347.499	0.31
347.861	0.34
348.223	0.39
348.585	0.46
348.947	0.41
349.309	0.39
349.671	0.37
350.033	0.43
350.395	0.43
350.757	0.51
351.118	0.52
351.48	0.62
351.842	0.58
352.203	0.6
352.565	0.56
352.927	0.51
353.288	0.52
353.65	0.53
354.011	0.43
354.372	0.45
354.734	0.44
355.095	0.54
355.456	0.58
355.817	0.57
356.179	0.52
356.54	0.52
356.901	0.47
357.262	0.46
357.623	0.44
357.984	0.5
358.345	0.55
358.705	0.59
359.066	0.54
359.427	0.61
359.788	0.58
360.148	0.6
360.509	0.54
360.87	0.62
361.23	0.73
361.591	0.73
361.951	0.79
362.312	0.84
362.672	0.96
363.032	1.02
363.393	0.94
363.753	0.9
364.113	0.84
364.473	0.83
364.833	0.77
365.193	0.79
365.553	0.81
365.913	0.85
366.273	0.9
366.633	0.89
366.993	0.87
367.353	0.82
367.713	0.8
368.072	0.86
368.432	0.7
368.792	0.69
369.151	0.67
369.511	0.66
369.87	0.61
370.23	0.62
370.589	0.64
370.949	0.64
371.308	0.61
371.667	0.48
372.027	0.43
372.386	0.49
372.745	0.54
373.104	0.57
373.463	0.44
373.822	0.46
374.181	0.53
374.54	0.47
374.899	0.58
375.258	0.53
375.617	0.55
375.975	0.59
376.334	0.64
376.693	0.75
377.052	0.69
377.41	0.84
377.769	0.85
378.127	0.95
378.486	1.06
378.844	1.24
379.202	1.19
379.561	1.09
379.919	1.02
380.277	1.1
380.636	1.22
380.994	1.3
381.352	1.45
381.71	1.48
382.068	1.52
382.426	1.61
382.784	1.74
383.142	1.76
383.5	1.85
383.857	1.91
384.215	2.03
384.573	2.18
384.931	2.18
385.288	2.26
385.646	2.35
386.003	2.54
386.361	2.59
386.718	2.65
387.076	2.67
387.433	2.67
387.791	2.57
388.148	2.69
388.505	2.93
388.862	3.14
389.22	3.24
389.577	3.32
389.934	3.44
390.291	3.6
390.648	3.81
391.005	4.05
391.362	4.28
391.718	4.47
392.075	4.69
392.432	4.97
392.789	5.11
393.145	5.32
393.502	5.55
393.859	5.78
394.215	5.93
394.572	6.2
394.928	6.38
395.285	6.68
395.641	7.01
395.997	7.4
396.354	7.86
396.71	8.29
397.066	8.63
397.422	8.98
397.778	9.38
398.134	9.75
398.491	10.25
398.846	10.62
399.202	11.1
399.558	11.55
399.914	11.9
400.27	12.35
400.626	12.78
400.981	13.2
401.337	13.66
401.693	14.15
402.048	14.73
402.404	15.25
402.759	15.89
403.115	16.58
403.47	17.11
403.826	17.8
404.181	18.3
404.536	18.95
404.892	19.5
405.247	20.06
405.602	20.7
405.957	21.29
406.312	21.9
406.667	22.41
407.022	23.1
407.377	23.66
407.732	24.39
408.087	24.95
408.442	25.48
408.796	26.07
409.151	26.73
409.506	27.36
409.86	27.98
410.215	28.58
410.57	29.28
410.924	29.75
411.279	30.19
411.633	30.7
411.987	31.32
412.342	31.89
412.696	32.33
413.05	32.96
413.404	33.41
413.758	33.99
414.113	34.49
414.467	34.97
414.821	35.55
415.175	36.11
415.529	36.65
415.882	37.01
416.236	37.42
416.59	37.89
416.944	38.31
417.298	38.78
417.651	39.12
418.005	39.46
418.358	39.94
418.712	40.31
419.065	40.69
419.419	40.99
419.772	41.34
420.126	41.8
420.479	42.03
420.832	42.29
421.185	42.51
421.539	42.91
421.892	43.15
422.245	43.48
422.598	43.79
422.951	44.09
423.304	44.32
423.657	44.56
424.01	44.77
424.363	44.91
424.715	45.14
425.068	45.41
425.421	45.7
425.773	45.92
426.126	46.13
426.479	46.6
426.831	46.86
427.184	46.95
427.536	47.31
427.889	47.44
428.241	47.65
428.593	47.9
428.945	48.12
429.298	48.44
429.65	48.61
430.002	48.74
430.354	48.88
430.706	49.07
431.058	49.23
431.41	49.31
431.762	49.42
432.114	49.53
432.466	49.64
432.817	49.91
433.169	50.18
433.521	50.46
433.872	50.62
434.224	50.61
434.576	50.57
434.927	50.94
435.279	51
435.63	51.19
435.981	51.32
436.333	51.47
436.684	51.57
437.035	51.56
437.387	51.61
437.738	51.52
438.089	51.58
438.44	51.63
438.791	51.85
439.142	51.85
439.493	52.04
439.844	52.05
440.195	52.1
440.545	52.18
440.896	52.3
441.247	52.29
441.598	52.22
441.948	52.24
442.299	52.21
442.649	52.23
443	52.32
443.35	52.57
443.701	52.37
444.051	52.46
444.401	52.48
444.752	52.54
445.102	52.31
445.452	52.32
445.802	52.38
446.152	52.52
446.502	52.69
446.852	52.78
447.202	52.85
447.552	52.82
447.902	52.93
448.252	52.92
448.602	52.04
448.952	52.13
449.301	52.34
449.651	52.51
450.001	52.55
450.35	52.64
450.7	52.57
451.049	52.65
451.399	52.7
451.748	52.74
452.097	52.68
452.447	52.6
452.796	52.59
453.145	52.57
453.494	52.46
453.843	52.64
454.193	52.77
454.542	52.81
454.891	52.75
455.239	52.6
455.588	52.35
455.937	52.37
456.286	52.51
456.635	52.41
456.984	52.38
457.332	53.51
457.681	53.4
458.03	53.01
458.378	52.7
458.727	52.81
459.075	52.75
459.423	52.94
459.772	52.66
460.12	52.64
460.468	52.47
460.817	52.45
461.165	52.3
461.513	52.16
461.861	52.11
462.209	51.94
462.557	51.84
462.905	51.62
463.253	51.46
463.601	51.3
463.949	51.42
464.297	51.37
464.644	51.25
464.992	51.05
465.34	51.12
465.687	51.04
466.035	50.87
466.383	50.74
466.73	50.88
467.078	50.8
467.425	50.64
467.772	50.47
468.12	50.18
468.467	50.17
468.814	49.95
469.161	49.75
469.508	49.49
469.856	49.6
470.203	49.37
470.55	49.18
470.897	49.1
471.243	49.09
471.59	48.9
471.937	48.86
472.284	48.71
472.631	48.34
472.977	48.19
473.324	47.96
473.671	47.64
474.017	47.33
474.364	47.14
474.71	46.92
475.057	46.72
475.403	46.3
475.749	46.12
476.096	45.84
476.442	45.77
476.788	45.61
477.134	45.41
477.48	45.19
477.826	45.07
478.172	44.87
478.518	44.72
478.864	44.54
479.21	44.34
479.556	44.15
479.902	43.8
480.248	43.76
480.593	43.46
480.939	43.35
481.285	43.25
481.63	43.21
481.976	43.03
482.321	42.9
482.667	42.79
483.012	42.55
483.357	42.47
483.703	42.27
484.048	42.36
484.393	42.14
484.738	42.01
485.084	41.79
485.429	41.64
485.774	41.61
486.119	41.55
486.464	41.39
486.808	41.22
487.153	40.9
487.498	40.78
487.843	40.59
488.188	40.47
488.532	40.3
488.877	39.99
489.222	39.92
489.566	39.63
489.911	39.52
490.255	39.35
490.6	39.24
490.944	39.04
491.288	38.78
491.633	38.64
491.977	38.31
492.321	38.22
492.665	37.84
493.009	37.74
493.353	37.64
493.697	37.4
494.041	37.32
494.385	37.07
494.729	36.84
495.073	36.63
495.417	36.54
495.76	36.44
496.104	36.26
496.448	36.08
496.791	35.83
497.135	35.53
497.479	35.32
497.822	35.01
498.165	34.88
498.509	34.67
498.852	34.42
499.196	34.21
499.539	34.18
499.882	34.01
500.225	33.82
500.568	33.63
500.911	33.47
501.254	33.38
501.597	33.21
501.94	32.97
502.283	32.91
502.626	32.61
502.969	32.34
503.312	32.09
503.654	31.96
503.997	31.79
504.34	31.61
504.682	31.43
505.025	31.35
505.367	31.2
505.71	31.05
506.052	30.94
506.395	30.86
506.737	30.67
507.079	30.41
507.421	30.12
507.764	29.95
508.106	29.73
508.448	29.62
508.79	29.45
509.132	29.36
509.474	29.25
509.816	29.01
510.158	28.96
510.499	28.78
510.841	28.52
511.183	28.38
511.525	28.34
511.866	28.41
512.208	28.15
512.549	28.1
512.891	28.01
513.232	28
513.574	27.83
513.915	27.7
514.256	27.73
514.598	27.63
514.939	27.51
515.28	27.38
515.621	27.26
515.962	27.23
516.303	27.12
516.644	26.9
516.985	26.69
517.326	26.62
517.667	26.42
518.008	26.26
518.349	26.23
518.69	26.06
519.03	25.95
519.371	25.93
519.712	25.83
520.052	25.73
520.393	25.52
520.733	25.51
521.074	25.29
521.414	25.06
521.754	24.82
522.095	24.66
522.435	24.49
522.775	24.4
523.115	24.3
523.455	24.07
523.795	23.98
524.135	23.95
524.475	23.78
524.815	23.69
525.155	23.76
525.495	23.64
525.835	23.53
526.175	23.47
526.514	23.34
526.854	23.21
527.194	23.13
527.533	23.06
527.873	22.95
528.212	22.86
528.552	22.87
528.891	22.76
529.23	22.63
529.57	22.56
529.909	22.56
530.248	22.37
530.587	22.32
530.927	22.28
531.266	22.07
531.605	21.93
531.944	21.92
532.283	21.82
532.621	21.73
532.96	21.8
533.299	21.68
533.638	21.53
533.977	21.61
534.315	21.53
534.654	21.4
534.992	21.4
535.331	21.34
535.67	21.1
536.008	20.99
536.346	20.89
536.685	20.83
537.023	20.62
537.361	20.5
537.7	20.44
538.038	20.33
538.376	20.19
538.714	20.19
539.052	20.07
539.39	20.12
539.728	20.1
540.066	19.99
540.404	19.99
540.741	19.85
541.079	19.79
541.417	19.65
541.755	19.58
542.092	19.45
542.43	19.32
542.767	19.18
543.105	19.26
543.442	19.2
543.78	19.17
544.117	19.28
544.454	19.19
544.792	19.12
545.129	19.13
545.466	19.08
545.803	19.17
546.14	19.22
546.477	19.18
546.814	19.19
547.151	19.25
547.488	19.21
547.825	19.03
548.162	19.08
548.499	19.23
548.835	19.19
549.172	19.36
549.509	19.23
549.845	19.2
550.182	19.23
550.518	19.25
550.855	19.37
551.191	19.44
551.528	19.41
551.864	19.47
552.2	19.44
552.537	19.35
552.873	19.48
553.209	19.54
553.545	19.36
553.881	19.45
554.217	19.43
554.553	19.54
554.889	19.42
555.225	19.53
555.561	19.47
555.896	19.4
556.232	19.58
556.568	19.58
556.903	19.52
557.239	19.66
557.575	19.68
557.91	19.8
558.245	19.95
558.581	20.01
558.916	20.07
559.252	19.97
559.587	19.89
559.922	19.95
560.257	19.83
560.592	20
560.928	20.13
561.263	20.11
561.598	20.22
561.933	20.35
562.267	20.4
562.602	20.42
562.937	20.39
563.272	20.61
563.607	20.52
563.941	20.68
564.276	20.84
564.611	20.68
564.945	20.64
565.28	20.71
565.614	20.67
565.949	20.64
566.283	20.72
566.617	20.6
566.951	20.52
567.286	20.59
567.62	20.59
567.954	20.72
568.288	20.84
568.622	20.98
568.956	20.98
569.29	21.02
569.624	21.02
569.958	21.17
570.292	21.31
570.626	21.27
570.959	21.22
571.293	21.21
571.627	21.25
571.96	21.35
572.294	21.33
572.627	21.31
572.961	21.45
573.294	21.57
573.627	21.64
573.961	21.68
574.294	21.73
574.627	21.78
574.961	21.89
575.294	21.94
575.627	21.88
575.96	22
576.293	21.99
576.626	21.98
576.959	21.97
577.292	21.95
577.624	22.11
577.957	22.15
578.29	22.12
578.623	22.16
578.955	22.25
579.288	22.41
579.62	22.48
579.953	22.57
580.285	22.64
580.618	22.76
580.95	22.88
581.282	22.97
581.615	22.98
581.947	23.04
582.279	23.11
582.611	23.18
582.943	23.22
583.275	23.3
583.607	23.45
583.939	23.65
584.271	23.67
584.603	23.84
584.935	23.9
585.267	24.01
585.598	24.11
585.93	24.1
586.262	24.27
586.593	24.29
586.925	24.36
587.256	24.46
587.588	24.55
587.919	24.69
588.25	24.83
588.582	24.91
588.913	24.99
589.244	25.23
589.575	25.3
589.907	25.42
590.238	25.42
590.569	25.56
590.9	25.77
591.231	25.96
591.562	26.1
591.892	26.28
592.223	26.4
592.554	26.58
592.885	26.68
593.215	26.84
593.546	26.88
593.877	27.01
594.207	27.2
594.538	27.41
594.868	27.71
595.198	27.95
595.529	28.1
595.859	28.26
596.189	28.42
596.52	28.54
596.85	28.51
597.18	28.62
597.51	28.65
597.84	28.7
598.17	28.89
598.5	29.13
598.83	29.42
599.16	29.61
599.489	29.72
599.819	29.95
600.149	30.21
600.479	30.45
600.808	30.72
601.138	30.9
601.467	31.12
601.797	31.54
602.126	31.83
602.456	32.11
602.785	32.26
603.114	32.36
603.443	32.45
603.773	32.79
604.102	33.06
604.431	33.43
604.76	33.73
605.089	34.21
605.418	34.54
605.747	34.87
606.076	35.28
606.405	35.54
606.733	35.84
607.062	36.13
607.391	36.37
607.72	36.65
608.048	37.06
608.377	37.35
608.705	37.98
609.034	38.3
609.362	38.88
609.69	39.23
610.019	39.78
610.347	40.24
610.675	40.37
611.004	40.59
611.332	41.01
611.66	41.56
611.988	41.82
612.316	42.14
612.644	42.21
612.972	42.55
613.3	42.9
613.627	43.25
613.955	43.53
614.283	43.93
614.611	44.34
614.938	44.61
615.266	44.92
615.593	45.27
615.921	45.78
616.248	46.28
616.576	46.75
616.903	47.04
617.23	47.47
617.558	47.83
617.885	48.32
618.212	48.57
618.539	48.88
618.866	49.39
619.193	49.94
619.52	50.21
619.847	50.54
620.174	51
620.501	51.27
620.828	51.81
621.155	51.95
621.481	52.16
621.808	52.54
622.135	52.73
622.461	52.85
622.788	53.18
623.114	53.89
623.441	53.91
623.767	53.95
624.093	54.33
624.42	54.64
624.746	55.37
625.072	55.38
625.398	55.62
625.725	55.84
626.051	56.29
626.377	56.59
626.703	56.97
627.029	57.14
627.354	57.65
627.68	57.98
628.006	57.96
628.332	58.49
628.658	59.04
628.983	59.11
629.309	59.4
629.634	59.83
629.96	59.92
630.285	60.61
630.611	60.89
630.936	60.96
631.262	60.81
631.587	61.06
631.912	61.53
632.237	61.92
632.562	61.94
632.887	61.33
633.213	61.51
633.538	62.54
633.863	63.36
634.187	63.47
634.512	63.25
634.837	63.5
635.162	63.47
635.487	62.98
635.811	62.7
636.136	63.5
636.461	63.62
636.785	63.57
637.11	64.31
637.434	64.52
637.758	64.93
638.083	65.01
638.407	64.64
638.731	64.72
639.056	65.65
639.38	65.65
639.704	67.02
640.028	67.69
640.352	67.51
640.676	66.99
641	67.6
641.324	67.34
641.648	66.49
641.972	66.55
642.295	67.67
642.619	67.8
642.943	67.27
643.266	67.44
643.59	68.39
643.913	69.21
644.237	69.04
644.56	68.92
644.884	69.23
645.207	69.04
645.53	69.32
645.854	69.26
646.177	69.39
646.5	70.19
646.823	70.59
647.146	70.07
647.469	70.16
647.792	69.76
648.115	69.75
648.438	70.38
648.761	72.66
649.084	74
649.406	74.1
649.729	73.38
650.052	73.11
650.374	72.93
650.697	73.14
651.019	73.22
651.342	73.55
651.664	73.53
651.987	73.31
652.309	73.52
652.631	73.68
652.953	73.83
653.276	73.75
653.598	73.89
653.92	73.89
654.242	74.3
654.564	74.21
654.886	74.11
655.208	74.09
655.53	73.92
655.851	73.97
656.173	74
656.495	74.21
656.816	73.76
657.138	73.08
657.46	73.25
657.781	75.53
658.103	76.45
658.424	77.13
658.746	77.62
659.067	78.01
659.388	77.48
659.709	77.38
660.031	77.49
660.352	76.59
660.673	76.51
660.994	75.66
661.315	76.57
661.636	76.09
661.957	76.93
662.278	76.08
662.599	76.33
662.919	76.97
663.24	77.41
663.561	78.36
663.881	78.1
664.202	78.63
664.523	76.43
664.843	76.19
665.164	75.91
665.484	76.13
665.804	75.15
666.125	76.12
666.445	75.91
666.765	75.93
667.085	77.16
667.405	77.8
667.726	78.07
668.046	79.13
668.366	80.37
668.686	80.42
669.005	80.71
669.325	80.54
669.645	80.35
669.965	80.01
670.285	79.12
670.604	79.61
670.924	79.08
671.243	79.66
671.563	79.57
671.882	79.26
672.202	78.55
672.521	79.51
672.841	79.78
673.16	80.42
673.479	80.61
673.798	80.81
674.117	80.41
674.437	80.54
674.756	80.55
675.075	80.05
675.394	80.26
675.713	80.39
676.031	80.19
676.35	79.63
676.669	78.89
676.988	78.3
677.306	77.65
677.625	77.66
677.944	77.77
678.262	78.37
678.581	77.98
678.899	78.82
679.218	78.55
679.536	78.78
679.854	78.52
680.172	78.66
680.491	78.98
680.809	78.53
681.127	78.92
681.445	78.52
681.763	78.91
682.081	79.13
682.399	79.32
682.717	78.97
683.035	78.47
683.352	77.87
683.67	78.59
683.988	78.41
684.306	79.06
684.623	78.96
684.941	79.14
685.258	79.55
685.576	80.33
685.893	80.14
686.211	80.88
686.528	82.5
686.845	81.86
687.162	81.25
687.48	81.41
687.797	82.35
688.114	82.45
688.431	82.29
688.748	81.79
689.065	80.82
689.382	81.43
689.699	82.34
690.015	82.79
690.332	83.4
690.649	83.81
690.966	83.6
691.282	83.85
691.599	83.06
691.915	83.27
692.232	82.91
692.548	83.89
692.865	85.28
693.181	85.36
693.497	84.88
693.813	84.32
694.13	83.96
694.446	82.5
694.762	83.87
695.078	84.83
695.394	84.97
695.71	83.74
696.026	83.6
696.342	83.26
696.658	84.01
696.973	83.69
697.289	83.32
697.605	82.57
697.92	82.71
698.236	81.75
698.551	80.06
698.867	80.15
699.182	80.69
699.498	80.58
699.813	81.04
700.128	81.44
700.444	80.7
700.759	79.32
701.074	79.53
701.389	79.19
701.704	80.71
702.019	80.76
702.334	80.84
702.649	80.17
702.964	79.76
703.279	80.21
703.594	81.67
703.908	82.36
704.223	82.26
704.538	81.84
704.852	83.63
705.167	83.49
705.481	82.53
705.796	81.62
706.11	81.99
706.425	82.56
706.739	82.49
707.053	82.01
707.368	82.88
707.682	83.09
707.996	81.77
708.31	81.64
708.624	81.69
708.938	81.22
709.252	82.53
709.566	80.93
709.88	80.6
710.193	80.32
710.507	80.41
710.821	80.67
711.135	80.18
711.448	80.43
711.762	81.02
712.075	80.47
712.389	79.94
712.702	77.64
713.015	78.12
713.329	78.8
713.642	78.52
713.955	78.84
714.269	79.88
714.582	80.02
714.895	79.26
715.208	79.33
715.521	77.62
715.834	80.57
716.147	81.59
716.459	82.64
716.772	82.9
717.085	81.99
717.398	82.9
717.71	82.25
718.023	82.35
718.336	80.6
718.648	79.89
718.961	79.95
719.273	80.42
719.585	80.74
719.898	82.24
720.21	85.23
720.522	86.88
720.834	85.5
721.147	85.17
721.459	86.08
721.771	85.28
722.083	84.77
722.395	86.57
722.707	87.59
723.019	87.26
723.33	89.45
723.642	87.93
723.954	86.91
724.265	85.57
724.577	86.43
724.889	85.99
725.2	85.36
725.512	87
725.823	87.9
726.135	88.81
726.446	88.4
726.757	86.34
727.068	85.28
727.38	84.4
727.691	83.56
728.002	82.52
728.313	81.99
728.624	82.02
728.935	81.16
729.246	80.96
729.557	80.86
729.867	80.72
730.178	80.26
730.489	79.98
730.8	79.09
731.11	78.22
731.421	76.9
731.731	77.93
732.042	78.14
732.352	77.86
732.663	77.55
732.973	77.44
733.283	76.7
733.594	76.47
733.904	76.8
734.214	77.87
734.524	79.74
734.834	80.09
735.144	80.58
735.454	81.1
735.764	81.02
736.074	81
736.384	80.83
736.694	81.76
737.003	82.07
737.313	82.13
737.623	81.59
737.932	80.73
738.242	80.7
738.551	78.8
738.861	77.87
739.17	77.37
739.479	77.31
739.789	77.66
740.098	76.82
740.407	78.6
740.716	80.42
741.025	79.16
741.334	76.43
741.643	77.67
741.952	74.95
742.261	74.63
742.57	75.46
742.879	74.41
743.188	74.26
743.497	73.73
743.805	73.64
744.114	74.59
744.422	74.94
744.731	75.4
745.04	75.46
745.348	78.1
745.656	78.99
745.965	77.82
746.273	80.59
746.581	83.31
746.889	82.33
747.198	80.17
747.506	79.51
747.814	80.27
748.122	78.54
748.43	75.53
748.738	74.26
749.046	73.93
749.353	72.78
749.661	74.08
749.969	74.34
750.277	72.72
750.584	72.13
750.892	73.24
751.199	73.12
751.507	72.15
751.814	72.21
752.122	71.79
752.429	71.52
752.736	73.63
753.044	71.93
753.351	71.39
753.658	72.86
753.965	73.88
754.272	72.78
754.579	73.86
754.886	76.07
755.193	77.4
755.5	77.29
755.807	78.18
756.114	77.31
756.42	78.36
756.727	80.23
757.034	80.4
757.34	80.59
757.647	80.9
757.953	81.45
758.26	81.63
758.566	80.83
758.872	81.19
759.179	84.53
759.485	86.58
759.791	88.32
760.097	85.9
760.403	83.44
760.709	85.86
761.015	85.36
761.321	87.17
761.627	88.54
761.933	88.91
762.239	89.43
762.545	86.12
762.851	85.38
763.156	87.35
763.462	87.46
763.767	92.64
764.073	93.42
764.378	90.69
764.684	91.21
764.989	94.67
765.295	91.19
765.6	90.52
765.905	92.77
766.21	95.76
766.515	93.58
766.821	94.97
767.126	88.48
767.431	87.08
767.736	89.99
768.041	89.76
768.345	87.69
768.65	91.51
768.955	87.82
769.26	83.93
769.564	81.82
769.869	76.97
770.174	79.68
770.478	76.97
770.783	75.4
771.087	75.61
771.391	74.53
771.696	72.71
772	79.11
772.304	77.99
772.608	76.83
772.913	80.01
773.217	80.14
773.521	77.93
773.825	73.23
774.129	72.49
774.433	70.09
774.736	71.16
775.04	73.24
775.344	73.64
775.648	71.28
775.951	69.41
776.255	66.35
776.559	63.11
776.862	66.42
777.166	70.78
777.469	74.88
777.772	78.81
778.076	86.04
778.379	84.21
778.682	84.93
778.985	86.25
779.289	87.64
779.592	81.13
779.895	78.94
780.198	79.27
780.501	74.67
780.804	71.99
781.106	69.18
781.409	72.11
781.712	76.34
782.015	77.12
782.317	84.92
782.62	81.29
782.923	82.42
783.225	84.3
783.527	85.8
783.83	89.7
784.132	92.94
784.435	90.34
784.737	89.56
785.039	89.13
785.341	83.04
785.643	74.57
785.945	81.14
786.248	79.35
786.55	82.4
786.851	83.36
787.153	84.57
787.455	83.58
787.757	82.23
788.059	86.15
788.36	88.96
788.662	94.44
788.964	90.96
789.265	91.04
789.567	93.91
789.868	85.07
790.17	87.71
790.471	87.43
790.772	86.42
791.074	82.83
791.375	75.34
791.676	70.83
791.977	61.86
792.278	59.77
792.579	54.2
792.88	51.78
793.181	57.85
793.482	52.58
793.783	53.7
794.083	51.65
794.384	51.98
794.685	51.97
794.986	51.67
795.286	49.22
795.587	44.08
795.887	45.2
796.188	39.52
796.488	38.56
796.788	36.28
797.089	25.6
797.389	23.28
797.689	25.2
797.989	24.66
798.289	26.64
798.589	35.75
798.889	34.85
799.189	41.03
799.489	50.85
799.789	49.79
800.089	57.77
800.389	60.64
800.688	62.37
800.988	55.09
801.288	63.96
801.587	58.04
801.887	57.83
802.186	48.32
802.486	59.3
802.785	57.79
803.085	85.69
803.384	79.44
803.683	111.36
803.982	114.9
804.281	119.72
804.58	165.92
804.879	189.09
805.178	252.97
805.477	432.66
805.776	297.34
806.075	186.57
806.374	236.15
806.673	121.13
806.971	89.97
807.27	99.61
807.569	115.76
807.867	113.28
808.166	-24.42
808.464	72.46
808.763	22.43
809.061	64.15
809.359	54.77
809.658	67.6
809.956	69.38
810.254	90.35
810.552	87.88
810.85	76
811.148	-5.34
811.446	9.04
811.744	84.38
812.042	37.14
812.34	17.86
812.638	35.32
812.935	39.98
813.233	10.43
813.531	65.48
813.828	93.97
814.126	130.69
814.423	153.57
814.721	190.86
815.018	168.11
815.316	153.57
815.613	203.77
815.91	192.49
816.207	177.53
816.504	154.26
816.802	180.37
817.099	278.98
817.396	210.34
817.693	196.18
817.99	207.55
818.286	254.67
818.583	143.86
818.88	126.02
819.177	88.27
819.473	106.18
819.77	95.12
820.067	63.32
820.363	43.32
820.66	42.98
820.956	42.92
821.252	27.95
821.549	52.51
821.845	55.97
822.141	59.02
822.437	46.53
822.734	69.81
823.03	71.19
823.326	91.24
823.622	76.51
823.918	67.08
824.213	95.84
824.509	92.3
824.805	93.83
825.101	103.19
825.397	100.45
825.692	91.17
825.988	135.7
826.283	123.99
826.579	153.98
826.874	166.76
827.17	168.13
827.465	178.34
827.76	313.63
828.056	502.12
828.351	252.52
828.646	227.14
828.941	205.25
829.236	276.16
829.531	343.78
829.826	240.15
830.121	180.82
830.416	190.54
830.711	157.96
831.006	125.79
831.3	127
831.595	121.4
831.89	113.96
832.184	127.54
832.479	116.87
832.773	106.13
833.068	113.24
833.362	94.25
833.656	110.65
833.951	83.51
834.245	80.46
834.539	82.88
834.833	137.61
835.127	99.83
835.421	75.35
835.715	104.89
836.009	144.78
836.303	180.7
836.597	131.96
836.891	154.88
837.185	227.39
837.478	610.72
837.772	332.46
838.066	294.19
838.359	413.07
838.653	362.19
838.946	270.43
839.24	258.75
839.533	188.47
839.826	156.72
840.119	169.76
840.413	222.81
840.706	223.97
840.999	174
841.292	144.3
841.585	146.44
841.878	135.78
842.171	121.58
842.464	135.29
842.757	186.49
843.049	215.08
843.342	155.38
843.635	109.72
843.927	110.64
844.22	107.23
844.513	106.68
844.805	85.53
845.098	80.8
845.39	106.15
845.682	118.14
845.975	101.17
846.267	118.26
846.559	81.78
846.851	76
847.143	92.21
847.435	120.65
847.727	99.82
848.019	108.67
848.311	80.94
848.603	86.23
848.895	74.1
849.186	68.09
849.478	71.39
849.77	68.89
850.061	52.12
850.353	39.58
850.645	44.25
850.936	41.46
851.227	44.79
851.519	31.46
851.81	28.39
852.101	35.46
852.393	37.45
852.684	30.02
852.975	23.65
853.266	32.32
853.557	23.83
853.848	37.38
854.139	41.89
854.43	37.53
854.72	18.29
855.011	28.86
855.302	22.25
855.593	19.13
855.883	12.7
856.174	13.01
856.464	24.68
856.755	18
857.045	22.12
857.336	17.97
857.626	38.76
857.916	36.84
858.206	65.14
858.497	94.2
858.787	101.1
859.077	118.18
859.367	123.37
859.657	87.34
859.947	64.78
860.237	84.27
860.527	68.92
860.816	61.87
861.106	52.31
861.396	48.28
861.685	62.5
861.975	76.67
862.265	98.37
862.554	69.33
862.844	89.47
863.133	77.86
863.422	68.01
863.712	31.04
864.001	4.96
864.29	-6.27
864.579	4.19
864.868	-10.98
865.157	-9.04
865.446	-2.55
865.735	-5.56
866.024	-11.95
866.313	-9.02
866.602	-14.29
866.891	-29.31
867.179	-59.2
867.468	-38.04
