Data from T2_Reflection__65__01-07-20-898.txt Node

Date: Fri Jun 04 01:07:20 CEST 2021
User: mabdelazizm
Spectrometer: FLMS18565
Trigger mode: 0
Integration Time (sec): 2.000000E0
Scans to average: 1
Electric dark correction enabled: true
Nonlinearity correction enabled: false
Boxcar width: 12
XAxis mode: Wavelengths
Number of Pixels in Spectrum: 2048
>>>>>Begin Spectral Data<<<<<
179.071	277.58
179.452	37.55
179.833	72.06
180.214	2500
180.595	143.63
180.977	259.61
181.358	1381.63
181.739	-639.39
182.12	-35.86
182.501	6.15
182.882	-0.09
183.262	53.85
183.643	54.1
184.024	39.78
184.405	38.25
184.786	51.96
185.166	59.01
185.547	45.05
185.927	51.05
186.308	51.06
186.689	54.99
187.069	59.55
187.449	58.74
187.83	54.97
188.21	49.27
188.59	48.79
188.971	45.65
189.351	45.14
189.731	50.02
190.111	50.55
190.491	53.91
190.871	48.29
191.251	55.76
191.631	56.41
192.011	50.07
192.391	52.68
192.771	52.87
193.151	51.09
193.531	52.21
193.91	56.01
194.29	55.65
194.67	54.24
195.049	53.99
195.429	55.8
195.808	54.24
196.188	48.83
196.567	46.22
196.946	46.28
197.326	42.93
197.705	44.12
198.084	44.14
198.464	41.07
198.843	40.47
199.222	42.26
199.601	39.8
199.98	40.57
200.359	44.38
200.738	41.88
201.117	39.12
201.496	40.25
201.875	37.82
202.254	33.79
202.632	31.06
203.011	33.5
203.39	31.52
203.768	30.65
204.147	29.56
204.525	31.06
204.904	27.71
205.282	28.41
205.661	30.35
206.039	30.6
206.418	29.42
206.796	32.4
207.174	33.87
207.552	34.61
207.931	34.65
208.309	34.51
208.687	31.7
209.065	32.02
209.443	33.01
209.821	31.79
210.199	31.11
210.577	31.2
210.954	30.75
211.332	29.03
211.71	30.68
212.088	31.9
212.465	29.59
212.843	29.37
213.221	26.84
213.598	28.28
213.976	26.49
214.353	27.96
214.731	24.59
215.108	24.65
215.485	25.44
215.863	22.67
216.24	21.13
216.617	20.25
216.994	19.74
217.371	20.34
217.749	19.83
218.126	19.15
218.503	18.88
218.88	16.4
219.256	16.52
219.633	14.99
220.01	14.53
220.387	14.4
220.764	14.8
221.14	13.56
221.517	13.7
221.894	13.3
222.27	13.6
222.647	13.82
223.023	12.34
223.4	12.46
223.776	11.34
224.153	12.36
224.529	11.36
224.905	10.82
225.282	11.42
225.658	10.54
226.034	9.6
226.41	9.25
226.786	9.34
227.162	9.03
227.538	8.73
227.914	8.52
228.29	8.16
228.666	7.64
229.042	7.51
229.418	7.52
229.793	7.48
230.169	7.2
230.545	6.98
230.92	6.72
231.296	6.73
231.672	6.19
232.047	6.12
232.422	5.99
232.798	5.87
233.173	5.83
233.549	5.77
233.924	5.78
234.299	5.64
234.674	5.71
235.05	5.92
235.425	5.8
235.8	5.5
236.175	5.21
236.55	4.99
236.925	4.92
237.3	4.64
237.675	4.64
238.049	4.58
238.424	4.66
238.799	4.43
239.174	4.39
239.548	4.47
239.923	4.31
240.297	4.21
240.672	4.18
241.046	4.2
241.421	4.08
241.795	4.01
242.17	4
242.544	3.87
242.918	3.79
243.293	3.69
243.667	3.8
244.041	3.74
244.415	3.65
244.789	3.67
245.163	3.74
245.537	3.72
245.911	3.78
246.285	3.87
246.659	3.91
247.033	3.83
247.406	3.85
247.78	3.77
248.154	3.81
248.528	3.78
248.901	3.76
249.275	3.82
249.648	3.86
250.022	3.78
250.395	3.79
250.769	3.79
251.142	3.83
251.515	3.74
251.888	3.76
252.262	3.79
252.635	3.84
253.008	3.75
253.381	3.72
253.754	3.63
254.127	3.63
254.5	3.56
254.873	3.5
255.246	3.47
255.619	3.43
255.992	3.47
256.364	3.52
256.737	3.45
257.11	3.5
257.483	3.38
257.855	3.35
258.228	3.26
258.6	3.28
258.973	3.24
259.345	3.23
259.718	3.14
260.09	3.15
260.462	3.11
260.834	3.13
261.207	3.15
261.579	3.14
261.951	3.17
262.323	3.04
262.695	2.98
263.067	3.02
263.439	3
263.811	3.03
264.183	3.02
264.555	3.04
264.927	3.07
265.298	3.04
265.67	2.95
266.042	2.97
266.413	2.87
266.785	2.93
267.156	2.94
267.528	2.9
267.899	2.83
268.271	2.84
268.642	2.79
269.013	2.86
269.385	2.85
269.756	2.82
270.127	2.81
270.498	2.8
270.87	2.73
271.241	2.65
271.612	2.65
271.983	2.61
272.354	2.57
272.724	2.53
273.095	2.58
273.466	2.61
273.837	2.56
274.208	2.5
274.578	2.42
274.949	2.41
275.32	2.39
275.69	2.42
276.061	2.44
276.431	2.44
276.802	2.52
277.172	2.59
277.542	2.49
277.913	2.5
278.283	2.42
278.653	2.39
279.023	2.42
279.394	2.44
279.764	2.43
280.134	2.48
280.504	2.5
280.874	2.59
281.244	2.62
281.614	2.64
281.983	2.67
282.353	2.62
282.723	2.59
283.093	2.6
283.462	2.62
283.832	2.62
284.202	2.65
284.571	2.61
284.941	2.65
285.31	2.61
285.68	2.64
286.049	2.59
286.418	2.5
286.788	2.7
287.157	2.73
287.526	2.77
287.895	2.77
288.264	2.73
288.633	2.62
289.002	2.61
289.371	2.57
289.74	2.49
290.109	2.45
290.478	2.44
290.847	2.44
291.216	2.41
291.585	2.36
291.953	2.36
292.322	2.45
292.691	2.37
293.059	2.4
293.428	2.35
293.796	2.34
294.165	2.25
294.533	2.25
294.901	2.28
295.27	2.3
295.638	2.4
296.006	2.22
296.374	2.22
296.743	2.18
297.111	2.28
297.479	2.24
297.847	2.26
298.215	2.27
298.583	2.22
298.95	2.25
299.318	2.24
299.686	2.26
300.054	2.24
300.422	2.24
300.789	2.28
301.157	2.29
301.525	2.18
301.892	2.21
302.26	2.24
302.627	2.27
302.994	2.28
303.362	2.35
303.729	2.39
304.097	2.29
304.464	2.3
304.831	2.22
305.198	2.21
305.565	2.18
305.932	2.13
306.299	2.04
306.666	2.12
307.033	2.18
307.4	2.19
307.767	2.18
308.134	2.15
308.501	2.16
308.867	2.16
309.234	2.19
309.601	2.21
309.967	2.16
310.334	2.09
310.701	2.09
311.067	2.11
311.433	2.11
311.8	2.14
312.166	2.12
312.533	2.11
312.899	2.08
313.265	2.03
313.631	2.01
313.997	1.95
314.363	1.9
314.729	1.94
315.096	1.99
315.461	1.93
315.827	1.87
316.193	1.77
316.559	1.71
316.925	1.81
317.291	1.83
317.656	1.82
318.022	1.81
318.388	1.73
318.753	1.79
319.119	1.79
319.484	1.87
319.85	1.83
320.215	1.86
320.581	1.79
320.946	1.77
321.311	1.76
321.676	1.69
322.042	1.72
322.407	1.72
322.772	1.65
323.137	1.68
323.502	1.73
323.867	1.75
324.232	1.71
324.597	1.78
324.962	1.81
325.327	1.9
325.691	2
326.056	1.85
326.421	1.82
326.785	1.78
327.15	1.82
327.514	1.86
327.879	1.81
328.243	1.85
328.608	1.8
328.972	1.89
329.337	1.75
329.701	1.79
330.065	1.78
330.429	1.81
330.794	1.84
331.158	1.86
331.522	1.95
331.886	1.97
332.25	2.01
332.614	2.02
332.978	1.92
333.342	1.97
333.705	1.96
334.069	1.98
334.433	1.89
334.797	1.78
335.16	1.92
335.524	1.9
335.887	1.83
336.251	1.77
336.614	1.76
336.978	1.73
337.341	1.66
337.705	1.65
338.068	1.63
338.431	1.66
338.794	1.58
339.158	1.48
339.521	1.4
339.884	1.44
340.247	1.4
340.61	1.33
340.973	1.27
341.336	1.21
341.699	1.17
342.062	1.16
342.424	1.09
342.787	1.06
343.15	0.98
343.512	1.09
343.875	1.16
344.238	1.1
344.6	1.12
344.963	1.25
345.325	1.25
345.688	1.25
346.05	1.31
346.412	1.32
346.775	1.37
347.137	1.38
347.499	1.41
347.861	1.51
348.223	1.65
348.585	1.74
348.947	1.66
349.309	1.6
349.671	1.58
350.033	1.71
350.395	1.71
350.757	1.82
351.118	1.8
351.48	1.88
351.842	1.86
352.203	1.91
352.565	1.86
352.927	1.88
353.288	1.86
353.65	1.89
354.011	1.83
354.372	1.8
354.734	1.83
355.095	1.75
355.456	1.81
355.817	1.74
356.179	1.71
356.54	1.7
356.901	1.67
357.262	1.59
357.623	1.54
357.984	1.57
358.345	1.59
358.705	1.59
359.066	1.52
359.427	1.58
359.788	1.56
360.148	1.65
360.509	1.57
360.87	1.6
361.23	1.59
361.591	1.55
361.951	1.53
362.312	1.56
362.672	1.53
363.032	1.55
363.393	1.49
363.753	1.42
364.113	1.48
364.473	1.46
364.833	1.47
365.193	1.47
365.553	1.52
365.913	1.47
366.273	1.49
366.633	1.54
366.993	1.49
367.353	1.46
367.713	1.52
368.072	1.57
368.432	1.48
368.792	1.45
369.151	1.43
369.511	1.41
369.87	1.34
370.23	1.34
370.589	1.36
370.949	1.29
371.308	1.26
371.667	1.29
372.027	1.25
372.386	1.3
372.745	1.35
373.104	1.31
373.463	1.24
373.822	1.3
374.181	1.32
374.54	1.24
374.899	1.29
375.258	1.28
375.617	1.33
375.975	1.52
376.334	1.58
376.693	1.62
377.052	1.56
377.41	1.61
377.769	1.6
378.127	1.6
378.486	1.65
378.844	1.78
379.202	1.79
379.561	1.78
379.919	1.76
380.277	1.76
380.636	1.82
380.994	1.9
381.352	2.01
381.71	2.01
382.068	2.01
382.426	2
382.784	2.09
383.142	2.12
383.5	2.25
383.857	2.31
384.215	2.3
384.573	2.24
384.931	2.15
385.288	2.16
385.646	2.14
386.003	2.19
386.361	2.25
386.718	2.26
387.076	2.3
387.433	2.28
387.791	2.23
388.148	2.24
388.505	2.34
388.862	2.41
389.22	2.46
389.577	2.45
389.934	2.44
390.291	2.42
390.648	2.46
391.005	2.56
391.362	2.7
391.718	2.67
392.075	2.66
392.432	2.82
392.789	2.82
393.145	2.84
393.502	3.02
393.859	3.11
394.215	3.15
394.572	3.23
394.928	3.35
395.285	3.41
395.641	3.55
395.997	3.73
396.354	3.87
396.71	4.12
397.066	4.27
397.422	4.52
397.778	4.64
398.134	4.94
398.491	5.08
398.846	5.35
399.202	5.7
399.558	6
399.914	6.23
400.27	6.46
400.626	6.69
400.981	7.05
401.337	7.24
401.693	7.61
402.048	8.07
402.404	8.33
402.759	8.75
403.115	9.17
403.47	9.67
403.826	10.1
404.181	10.61
404.536	11.11
404.892	11.48
405.247	12.02
405.602	12.53
405.957	13.06
406.312	13.38
406.667	13.97
407.022	14.43
407.377	15.07
407.732	15.6
408.087	16.01
408.442	16.61
408.796	17.2
409.151	17.73
409.506	18.29
409.86	18.84
410.215	19.42
410.57	20.03
410.924	20.53
411.279	21.15
411.633	21.68
411.987	22.39
412.342	22.91
412.696	23.46
413.05	24.01
413.404	24.54
413.758	25.22
414.113	25.71
414.467	26.07
414.821	26.65
415.175	27.35
415.529	27.96
415.882	28.51
416.236	28.93
416.59	29.45
416.944	30.06
417.298	30.45
417.651	30.8
418.005	31.3
418.358	31.92
418.712	32.47
419.065	32.91
419.419	33.29
419.772	33.81
420.126	34.3
420.479	34.74
420.832	35.01
421.185	35.32
421.539	35.6
421.892	35.89
422.245	36.29
422.598	36.55
422.951	36.98
423.304	37.26
423.657	37.45
424.01	37.7
424.363	37.95
424.715	38.2
425.068	38.62
425.421	38.85
425.773	39.12
426.126	39.45
426.479	39.88
426.831	40.19
427.184	40.33
427.536	40.55
427.889	40.84
428.241	41.1
428.593	41.28
428.945	41.42
429.298	41.66
429.65	41.95
430.002	42.2
430.354	42.54
430.706	42.8
431.058	43.06
431.41	43.27
431.762	43.47
432.114	43.81
432.466	44.05
432.817	44.33
433.169	44.59
433.521	44.82
433.872	44.95
434.224	45.28
434.576	45.34
434.927	45.47
435.279	45.57
435.63	45.67
435.981	45.96
436.333	46.09
436.684	46.16
437.035	46.26
437.387	46.4
437.738	46.42
438.089	46.45
438.44	46.53
438.791	46.54
439.142	46.62
439.493	46.72
439.844	46.65
440.195	46.58
440.545	46.67
440.896	46.83
441.247	46.92
441.598	46.85
441.948	46.78
442.299	46.77
442.649	46.8
443	46.69
443.35	46.84
443.701	46.82
444.051	46.94
444.401	47.07
444.752	46.99
445.102	46.89
445.452	46.89
445.802	47.06
446.152	47.21
446.502	47.41
446.852	47.43
447.202	47.39
447.552	47.63
447.902	47.54
448.252	47.57
448.602	48.01
448.952	48.29
449.301	48.27
449.651	48.35
450.001	48.41
450.35	48.55
450.7	48.68
451.049	48.74
451.399	49.02
451.748	49.09
452.097	49.12
452.447	49.21
452.796	49.31
453.145	49.28
453.494	49.33
453.843	49.33
454.193	49.42
454.542	49.31
454.891	49.25
455.239	49.15
455.588	49.03
455.937	49.18
456.286	49.05
456.635	49.29
456.984	49.31
457.332	48.92
457.681	48.89
458.03	48.91
458.378	48.74
458.727	48.86
459.075	48.78
459.423	48.81
459.772	48.76
460.12	48.52
460.468	48.43
460.817	48.39
461.165	48.32
461.513	48.24
461.861	48.2
462.209	48.18
462.557	48.23
462.905	48.28
463.253	48.33
463.601	48.35
463.949	48.49
464.297	48.53
464.644	48.33
464.992	48.34
465.34	48.16
465.687	48.2
466.035	48.18
466.383	48.02
466.73	47.99
467.078	47.9
467.425	47.72
467.772	47.85
468.12	47.65
468.467	47.77
468.814	47.8
469.161	47.81
469.508	47.79
469.856	47.82
470.203	47.62
470.55	47.62
470.897	47.42
471.243	47.43
471.59	47.15
471.937	46.91
472.284	46.71
472.631	46.45
472.977	46.39
473.324	46.37
473.671	46.25
474.017	46.05
474.364	45.82
474.71	45.49
475.057	45.4
475.403	45.2
475.749	45.05
476.096	44.87
476.442	44.56
476.788	44.55
477.134	44.25
477.48	43.97
477.826	43.8
478.172	43.54
478.518	43.29
478.864	43.13
479.21	42.9
479.556	42.82
479.902	42.68
480.248	42.58
480.593	42.45
480.939	42.24
481.285	42.14
481.63	42.07
481.976	41.93
482.321	41.78
482.667	41.71
483.012	41.63
483.357	41.63
483.703	41.5
484.048	41.49
484.393	41.38
484.738	41.32
485.084	41.31
485.429	41.29
485.774	41.32
486.119	41.31
486.464	41.21
486.808	41.14
487.153	41.08
487.498	41.08
487.843	40.87
488.188	40.69
488.532	40.56
488.877	40.44
489.222	40.35
489.566	40.26
489.911	40.19
490.255	40
490.6	39.83
490.944	39.64
491.288	39.53
491.633	39.36
491.977	39.2
492.321	39.12
492.665	38.83
493.009	38.68
493.353	38.51
493.697	38.37
494.041	38.13
494.385	37.94
494.729	37.74
495.073	37.77
495.417	37.69
495.76	37.49
496.104	37.29
496.448	37.26
496.791	37.08
497.135	36.95
497.479	36.76
497.822	36.68
498.165	36.59
498.509	36.31
498.852	36.13
499.196	36.08
499.539	36.04
499.882	35.91
500.225	35.8
500.568	35.72
500.911	35.47
501.254	35.43
501.597	35.4
501.94	35.25
502.283	35.11
502.626	34.95
502.969	34.81
503.312	34.62
503.654	34.38
503.997	34.14
504.34	34.06
504.682	33.94
505.025	33.9
505.367	33.78
505.71	33.52
506.052	33.45
506.395	33.3
506.737	33.21
507.079	33.18
507.421	33.17
507.764	32.98
508.106	32.83
508.448	32.62
508.79	32.53
509.132	32.47
509.474	32.38
509.816	32.24
510.158	32.05
510.499	32
510.841	31.83
511.183	31.79
511.525	31.65
511.866	31.67
512.208	31.46
512.549	31.5
512.891	31.39
513.232	31.33
513.574	31.09
513.915	31.05
514.256	31.06
514.598	31
514.939	30.94
515.28	30.76
515.621	30.6
515.962	30.42
516.303	30.35
516.644	30.28
516.985	30.28
517.326	30
517.667	29.77
518.008	29.68
518.349	29.63
518.69	29.63
519.03	29.47
519.371	29.44
519.712	29.23
520.052	29.1
520.393	29.02
520.733	29.01
521.074	28.91
521.414	28.71
521.754	28.58
522.095	28.71
522.435	28.6
522.775	28.52
523.115	28.46
523.455	28.22
523.795	28.2
524.135	28.24
524.475	28.1
524.815	27.97
525.155	27.95
525.495	27.83
525.835	27.83
526.175	27.79
526.514	27.77
526.854	27.67
527.194	27.57
527.533	27.42
527.873	27.29
528.212	27.06
528.552	27.1
528.891	26.94
529.23	26.83
529.57	26.68
529.909	26.61
530.248	26.54
530.587	26.33
530.927	26.32
531.266	26.19
531.605	25.92
531.944	25.89
532.283	25.69
532.621	25.45
532.96	25.47
533.299	25.38
533.638	25.14
533.977	25.09
534.315	25.08
534.654	24.98
534.992	24.79
535.331	24.62
535.67	24.42
536.008	24.36
536.346	24.19
536.685	24.33
537.023	24.05
537.361	24
537.7	23.9
538.038	23.81
538.376	23.8
538.714	23.67
539.052	23.48
539.39	23.42
539.728	23.39
540.066	23.33
540.404	23.35
540.741	23.26
541.079	23.24
541.417	23.2
541.755	23.25
542.092	23.19
542.43	23.11
542.767	22.9
543.105	22.82
543.442	22.87
543.78	22.87
544.117	23
544.454	23.09
544.792	23.18
545.129	23.16
545.466	23.06
545.803	22.93
546.14	23
546.477	22.95
546.814	22.95
547.151	22.95
547.488	22.96
547.825	22.76
548.162	22.73
548.499	22.88
548.835	22.74
549.172	22.69
549.509	22.63
549.845	22.52
550.182	22.4
550.518	22.33
550.855	22.38
551.191	22.55
551.528	22.57
551.864	22.58
552.2	22.48
552.537	22.45
552.873	22.34
553.209	22.27
553.545	22.08
553.881	22.35
554.217	22.44
554.553	22.34
554.889	22.31
555.225	22.31
555.561	22.24
555.896	22.32
556.232	22.4
556.568	22.42
556.903	22.35
557.239	22.38
557.575	22.56
557.91	22.63
558.245	22.7
558.581	22.77
558.916	22.84
559.252	22.72
559.587	22.56
559.922	22.61
560.257	22.53
560.592	22.61
560.928	22.56
561.263	22.69
561.598	22.93
561.933	22.98
562.267	23.09
562.602	23.19
562.937	23.2
563.272	23.32
563.607	23.15
563.941	23.11
564.276	23
564.611	23
564.945	22.97
565.28	23
565.614	23.16
565.949	23.13
566.283	23.21
566.617	23.21
566.951	23.19
567.286	23.28
567.62	23.31
567.954	23.39
568.288	23.52
568.622	23.57
568.956	23.69
569.29	23.75
569.624	23.68
569.958	23.6
570.292	23.69
570.626	23.64
570.959	23.54
571.293	23.63
571.627	23.62
571.96	23.77
572.294	23.85
572.627	24.03
572.961	24.17
573.294	24.25
573.627	24.29
573.961	24.25
574.294	24.26
574.627	24.27
574.961	24.4
575.294	24.38
575.627	24.29
575.96	24.3
576.293	24.35
576.626	24.23
576.959	24.27
577.292	24.29
577.624	24.3
577.957	24.26
578.29	24.24
578.623	24.28
578.955	24.28
579.288	24.38
579.62	24.36
579.953	24.48
580.285	24.5
580.618	24.6
580.95	24.52
581.282	24.43
581.615	24.38
581.947	24.46
582.279	24.54
582.611	24.6
582.943	24.62
583.275	24.56
583.607	24.73
583.939	24.96
584.271	25.12
584.603	25.16
584.935	25.27
585.267	25.34
585.598	25.31
585.93	25.41
586.262	25.69
586.593	25.9
586.925	25.9
587.256	25.91
587.588	26.01
587.919	26.07
588.25	25.98
588.582	26.14
588.913	26.17
589.244	26.28
589.575	26.55
589.907	26.72
590.238	26.78
590.569	26.89
590.9	26.96
591.231	27.06
591.562	27.07
591.892	27.08
592.223	27.12
592.554	27.26
592.885	27.4
593.215	27.6
593.546	27.77
593.877	27.85
594.207	28
594.538	28.02
594.868	28.1
595.198	28.33
595.529	28.53
595.859	28.46
596.189	28.64
596.52	28.85
596.85	28.83
597.18	28.92
597.51	29.07
597.84	29.12
598.17	29.25
598.5	29.31
598.83	29.38
599.16	29.74
599.489	29.88
599.819	30.33
600.149	30.49
600.479	30.7
600.808	30.82
601.138	30.97
601.467	31.14
601.797	31.34
602.126	31.62
602.456	31.8
602.785	32
603.114	32.25
603.443	32.31
603.773	32.6
604.102	33.06
604.431	33.41
604.76	33.75
605.089	34.01
605.418	34.19
605.747	34.52
606.076	34.78
606.405	35.08
606.733	35.4
607.062	35.83
607.391	35.88
607.72	36.19
608.048	36.28
608.377	36.5
608.705	36.98
609.034	37.15
609.362	37.56
609.69	37.83
610.019	38.08
610.347	38.31
610.675	38.46
611.004	38.75
611.332	38.92
611.66	39.5
611.988	39.72
612.316	39.75
612.644	39.67
612.972	39.73
613.3	40.01
613.627	40.37
613.955	40.47
614.283	40.9
614.611	41.1
614.938	41.53
615.266	41.63
615.593	41.97
615.921	42.31
616.248	42.46
616.576	42.94
616.903	43.27
617.23	44.05
617.558	44.38
617.885	45.06
618.212	45.46
618.539	46.09
618.866	46.41
619.193	46.84
619.52	46.98
619.847	47.06
620.174	47.61
620.501	48.08
620.828	48.64
621.155	48.96
621.481	49.27
621.808	49.57
622.135	49.95
622.461	49.81
622.788	49.75
623.114	49.57
623.441	49.73
623.767	50.01
624.093	50.26
624.42	50.89
624.746	51.13
625.072	51.09
625.398	50.98
625.725	51.28
626.051	51.16
626.377	51.51
626.703	51.42
627.029	51.42
627.354	51.17
627.68	51.87
628.006	52.28
628.332	52.23
628.658	52.63
628.983	52.81
629.309	53.15
629.634	53.39
629.96	53.31
630.285	53.75
630.611	53.82
630.936	54.41
631.262	54.98
631.587	54.97
631.912	55.24
632.237	55.17
632.562	55.19
632.887	55.52
633.213	55.52
633.538	56.31
633.863	56.96
634.187	57.1
634.512	56.78
634.837	56.88
635.162	57.34
635.487	57.51
635.811	57.35
636.136	57.51
636.461	57.18
636.785	57.54
637.11	58.34
637.434	58.09
637.758	58.48
638.083	58.97
638.407	59.08
638.731	59.23
639.056	59.7
639.38	59
639.704	59.8
640.028	60.34
640.352	60.79
640.676	60.12
641	60.28
641.324	60.05
641.648	59.27
641.972	58.65
642.295	59.17
642.619	59.44
642.943	59.28
643.266	59.4
643.59	59.75
643.913	59.36
644.237	59.2
644.56	59.98
644.884	60.21
645.207	59.79
645.53	60.93
645.854	60.45
646.177	60.81
646.5	60.74
646.823	61.4
647.146	61.55
647.469	62.07
647.792	62.2
648.115	61.67
648.438	61.88
648.761	63.81
649.084	63.97
649.406	63.58
649.729	62.73
650.052	62.58
650.374	62.75
650.697	63.18
651.019	63.26
651.342	63.54
651.664	63.6
651.987	63.71
652.309	63.82
652.631	63.84
652.953	63.87
653.276	63.79
653.598	63.64
653.92	63.7
654.242	63.63
654.564	63.69
654.886	63.48
655.208	63.35
655.53	63.18
655.851	63.18
656.173	63.21
656.495	63.3
656.816	62.74
657.138	62.64
657.46	63.06
657.781	65.46
658.103	66.61
658.424	66.01
658.746	65.07
659.067	65.09
659.388	63.95
659.709	64.55
660.031	64.7
660.352	64.27
660.673	64.16
660.994	63.11
661.315	63.03
661.636	62.65
661.957	63.14
662.278	63.19
662.599	63.19
662.919	62.66
663.24	61.81
663.561	63.73
663.881	62.93
664.202	63
664.523	61.42
664.843	61.2
665.164	60.62
665.484	60.18
665.804	60.48
666.125	60.75
666.445	61.05
666.765	60.91
667.085	61.88
667.405	62.32
667.726	61.82
668.046	61.22
668.366	61.71
668.686	61.08
669.005	60.62
669.325	60.79
669.645	60.58
669.965	60.79
670.285	59.58
670.604	60.12
670.924	60.64
671.243	62.28
671.563	61.02
671.882	61.79
672.202	62.43
672.521	63.1
672.841	63.51
673.16	63.54
673.479	63.83
673.798	62.64
674.117	62.69
674.437	62.44
674.756	62.67
675.075	62.44
675.394	62.36
675.713	62.42
676.031	63.37
676.35	63.48
676.669	63.68
676.988	64.23
677.306	63.24
677.625	63.93
677.944	63.51
678.262	64.26
678.581	63.78
678.899	64.55
679.218	63.91
679.536	64.32
679.854	63.92
680.172	63.54
680.491	63.65
680.809	63.46
681.127	63.43
681.445	64.21
681.763	64.49
682.081	64.44
682.399	65.06
682.717	64.62
683.035	64.42
683.352	64.87
683.67	65.58
683.988	65.63
684.306	65.37
684.623	64.88
684.941	64.95
685.258	66.14
685.576	66.7
685.893	66.76
686.211	67.34
686.528	67.38
686.845	66.74
687.162	66.4
687.48	67.16
687.797	68.41
688.114	68.79
688.431	69.36
688.748	69.01
689.065	69.22
689.382	68.75
689.699	69.74
690.015	70.92
690.332	71.11
690.649	71.59
690.966	71.5
691.282	71.73
691.599	71.52
691.915	71.19
692.232	71.65
692.548	72.46
692.865	73.46
693.181	74.37
693.497	73.33
693.813	73.1
694.13	73.04
694.446	73.18
694.762	73.89
695.078	75.13
695.394	75.05
695.71	73.66
696.026	72.66
696.342	72.81
696.658	73.61
696.973	73.58
697.289	73.62
697.605	72.91
697.92	72.15
698.236	71.63
698.551	71.86
698.867	73.2
699.182	73.15
699.498	72.76
699.813	73.05
700.128	72.65
700.444	72.82
700.759	71.75
701.074	69.99
701.389	69.93
701.704	71.04
702.019	71.53
702.334	72.29
702.649	72.21
702.964	71.14
703.279	71.46
703.594	71.62
703.908	72.34
704.223	71.43
704.538	71.54
704.852	72.77
705.167	73.2
705.481	72.89
705.796	71.84
706.11	72.21
706.425	72.02
706.739	70.75
707.053	70
707.368	70.11
707.682	70.23
707.996	69.05
708.31	68.67
708.624	68.76
708.938	69.29
709.252	69.8
709.566	68.89
709.88	68.24
710.193	68.06
710.507	67.61
710.821	68.16
711.135	67.27
711.448	66.76
711.762	66.86
712.075	67.56
712.389	66.95
712.702	65.59
713.015	65.31
713.329	65.11
713.642	65.92
713.955	65.89
714.269	66.44
714.582	67.09
714.895	68.29
715.208	68.64
715.521	67.93
715.834	70.75
716.147	72.25
716.459	73.28
716.772	73.01
717.085	72.7
717.398	73.65
717.71	73.98
718.023	72.68
718.336	72.97
718.648	72.31
718.961	71.93
719.273	73.24
719.585	74.52
719.898	74.16
720.21	75.13
720.522	76.7
720.834	74.96
721.147	74.91
721.459	75.6
721.771	74.24
722.083	72.89
722.395	72.44
722.707	71.75
723.019	70.13
723.33	70.16
723.642	69.97
723.954	68.92
724.265	68.8
724.577	69.71
724.889	69.35
725.2	68.54
725.512	69.34
725.823	70.94
726.135	69.85
726.446	69.91
726.757	69.23
727.068	68.97
727.38	68.7
727.691	67.69
728.002	67.55
728.313	67.56
728.624	69.61
728.935	69.66
729.246	69.6
729.557	70.9
729.867	71.6
730.178	71.78
730.489	71.73
730.8	73.06
731.11	73.08
731.421	71.69
731.731	71.89
732.042	71.43
732.352	71.46
732.663	71.98
732.973	72.45
733.283	72.01
733.594	70.41
733.904	71.23
734.214	72.25
734.524	73.91
734.834	74.03
735.144	73.38
735.454	75.69
735.764	76.05
736.074	75.91
736.384	74.87
736.694	75.22
737.003	74.91
737.313	74.64
737.623	74.82
737.932	75.15
738.242	75.71
738.551	74.25
738.861	75.08
739.17	75.32
739.479	75.23
739.789	77.18
740.098	76.7
740.407	77.61
740.716	77.17
741.025	75.29
741.334	76.35
741.643	76.61
741.952	78.27
742.261	79.04
742.57	79.07
742.879	79.11
743.188	76.72
743.497	76.83
743.805	75.03
744.114	76.1
744.422	77.91
744.731	78.5
745.04	78.08
745.348	79.03
745.656	80.56
745.965	79.95
746.273	82.15
746.581	82.17
746.889	79.97
747.198	80.33
747.506	79.49
747.814	80.92
748.122	79
748.43	78.33
748.738	76.05
749.046	76.44
749.353	75.26
749.661	72.35
749.969	72.43
750.277	73.32
750.584	71.85
750.892	73.37
751.199	73.19
751.507	73.1
751.814	73.81
752.122	75.29
752.429	75.84
752.736	75.79
753.044	73.42
753.351	73.55
753.658	72.84
753.965	71.13
754.272	71.04
754.579	72.08
754.886	72.04
755.193	71.58
755.5	70.86
755.807	73.11
756.114	73.01
756.42	76.38
756.727	78.54
757.034	80.63
757.34	80.17
757.647	79.1
757.953	78.73
758.26	79.45
758.566	78.92
758.872	79.95
759.179	83.16
759.485	82.82
759.791	80.45
760.097	79.05
760.403	81.34
760.709	82.95
761.015	80.24
761.321	81.31
761.627	82.26
761.933	83.63
762.239	84.77
762.545	82.5
762.851	83.3
763.156	84.42
763.462	86.93
763.767	90.34
764.073	89.97
764.378	84.57
764.684	84.27
764.989	87.49
765.295	86.68
765.6	86.65
765.905	87.18
766.21	86.28
766.515	85.77
766.821	88.65
767.126	87.01
767.431	91.15
767.736	93.63
768.041	87.52
768.345	88.73
768.65	89.1
768.955	90.52
769.26	92.7
769.564	89.67
769.869	89.1
770.174	93.26
770.478	94.89
770.783	91.07
771.087	88.82
771.391	88.54
771.696	88
772	94.76
772.304	99.59
772.608	100.56
772.913	104.26
773.217	103.62
773.521	105.48
773.825	106.2
774.129	104.75
774.433	98.96
774.736	97.35
775.04	96.49
775.344	91.99
775.648	92.09
775.951	91.36
776.255	92.01
776.559	90.09
776.862	91.61
777.166	96.78
777.469	98.72
777.772	106.67
778.076	103.45
778.379	103.44
778.682	103.1
778.985	101.34
779.289	101.28
779.592	95.14
779.895	89.34
780.198	93.67
780.501	92.82
780.804	91.62
781.106	86.13
781.409	90.22
781.712	93.43
782.015	92.6
782.317	97.56
782.62	96.36
782.923	101.08
783.225	109.16
783.527	113.13
783.83	121.53
784.132	124.02
784.435	126.23
784.737	122
785.039	120.82
785.341	108.63
785.643	107.1
785.945	112.58
786.248	108.7
786.55	109.82
786.851	113.25
787.153	114.95
787.455	112.35
787.757	104.84
788.059	106.37
788.36	109.39
788.662	112.4
788.964	114.28
789.265	108.06
789.567	111.97
789.868	105.24
790.17	109.38
790.471	104.95
790.772	97.3
791.074	95.69
791.375	88.83
791.676	85.4
791.977	77.42
792.278	81.18
792.579	82.89
792.88	87.51
793.181	93.92
793.482	88.8
793.783	86.22
794.083	84.3
794.384	81.55
794.685	81.97
794.986	80.13
795.286	76.44
795.587	75.18
795.887	75.84
796.188	74.15
796.488	64.72
796.788	66.93
797.089	66.35
797.389	61.38
797.689	60.62
797.989	63.01
798.289	64.24
798.589	66.94
798.889	63.69
799.189	63.64
799.489	69
799.789	54.75
800.089	50.91
800.389	45.25
800.688	45.18
800.988	52.41
801.288	54.8
801.587	59.1
801.887	69.76
802.186	68.72
802.486	78.02
802.785	85.32
803.085	94.58
803.384	102.24
803.683	114.87
803.982	133.61
804.281	140.54
804.58	148.01
804.879	202.33
805.178	261.55
805.477	467.81
805.776	383.26
806.075	299.55
806.374	369.21
806.673	238.9
806.971	253.92
807.27	355.22
807.569	446.91
807.867	668.18
808.166	678.1
808.464	653.79
808.763	504.27
809.061	383.5
809.359	387.37
809.658	231.55
809.956	428.11
810.254	284.67
810.552	369.81
810.85	357.39
811.148	423.1
811.446	301.03
811.744	263.56
812.042	242.93
812.34	225.64
812.638	192.58
812.935	207.41
813.233	201.2
813.531	248.33
813.828	198.87
814.126	222.34
814.423	236.2
814.721	276.58
815.018	205.91
815.316	204.06
815.613	294.77
815.91	340.74
816.207	317.55
816.504	254.07
816.802	283.55
817.099	420.86
817.396	285.58
817.693	292.21
817.99	272.53
818.286	414.79
818.583	299.51
818.88	318.97
819.177	336.47
819.473	242.79
819.77	170.07
820.067	175.76
820.363	125.6
820.66	95.95
820.956	119.52
821.252	124.09
821.549	122.8
821.845	94.84
822.141	95.61
822.437	98.11
822.734	102.77
823.03	82.26
823.326	80.12
823.622	61.39
823.918	66.12
824.213	64.59
824.509	93.9
824.805	98.84
825.101	92.68
825.397	87.16
825.692	73.08
825.988	107.63
826.283	83.02
826.579	107.79
826.874	102.66
827.17	131.36
827.465	130.12
827.76	180.63
828.056	290.6
828.351	130.77
828.646	134.65
828.941	154.78
829.236	232.38
829.531	333.37
829.826	253.47
830.121	221.81
830.416	229.85
830.711	200.86
831.006	167.44
831.3	186.64
831.595	186.32
831.89	160.62
832.184	214.3
832.479	230.05
832.773	219.55
833.068	195.44
833.362	180.88
833.656	249.48
833.951	232.34
834.245	229.3
834.539	253.74
834.833	291.27
835.127	201.3
835.421	199.69
835.715	207.56
836.009	274.09
836.303	275.48
836.597	207.47
836.891	220.52
837.185	319.41
837.478	733.64
837.772	360.87
838.066	379.08
838.359	594.12
838.653	488.86
838.946	457.63
839.24	386.38
839.533	229.64
839.826	181.09
840.119	214.4
840.413	272.52
840.706	269.43
840.999	187.26
841.292	152.01
841.585	147.49
841.878	137.91
842.171	126.22
842.464	166.86
842.757	196.6
843.049	232.2
843.342	182.64
843.635	154.63
843.927	160.47
844.22	140.4
844.513	132.9
844.805	121.43
845.098	131.25
845.39	112.25
845.682	110.17
845.975	90.49
846.267	81.23
846.559	56.38
846.851	46.33
847.143	58.25
847.435	62.53
847.727	70.17
848.019	56.44
848.311	63.53
848.603	57.16
848.895	54.84
849.186	69.32
849.478	81.43
849.77	74.33
850.061	65.57
850.353	67.87
850.645	58.91
850.936	63.7
851.227	72.03
851.519	80.23
851.81	74.6
852.101	71.48
852.393	76.07
852.684	82.15
852.975	79.02
853.266	75.93
853.557	73.21
853.848	97.16
854.139	111.96
854.43	107.7
854.72	86.95
855.011	84.7
855.302	88.37
855.593	87.35
855.883	105.1
856.174	96.14
856.464	90.89
856.755	96.67
857.045	92.38
857.336	89.28
857.626	97.64
857.916	109.05
858.206	169.47
858.497	234.41
858.787	158.68
859.077	216.96
859.367	276.97
859.657	210.43
859.947	164.66
860.237	193.26
860.527	175.61
860.816	178.86
861.106	144.44
861.396	150.96
861.685	147.08
861.975	153.38
862.265	200.31
862.554	181.27
862.844	176.6
863.133	165.68
863.422	184.73
863.712	182.89
864.001	161.8
864.29	193.45
864.579	206.81
864.868	192.45
865.157	172.44
865.446	128.06
865.735	111.02
866.024	124.11
866.313	116.89
866.602	105.07
866.891	111.24
867.179	115.19
867.468	102.04
