Data from T2_Reflection__55__00-57-20-917.txt Node

Date: Fri Jun 04 00:57:20 CEST 2021
User: mabdelazizm
Spectrometer: FLMS18565
Trigger mode: 0
Integration Time (sec): 2.000000E0
Scans to average: 1
Electric dark correction enabled: true
Nonlinearity correction enabled: false
Boxcar width: 12
XAxis mode: Wavelengths
Number of Pixels in Spectrum: 2048
>>>>>Begin Spectral Data<<<<<
179.071	-71.3
179.452	-56.12
179.833	14.97
180.214	-600
180.595	10.6
180.977	-131.53
181.358	-2157.14
181.739	445.45
182.12	152.76
182.501	127.79
182.882	96.57
183.262	85.8
183.643	50.22
184.024	42.37
184.405	29.11
184.786	31.68
185.166	31.81
185.547	30.75
185.927	35.6
186.308	37.88
186.689	38.35
187.069	32.92
187.449	33.98
187.83	28.29
188.21	22.8
188.59	28.5
188.971	29.44
189.351	33.41
189.731	26.33
190.111	29.9
190.491	25.43
190.871	20.65
191.251	25.33
191.631	23.54
192.011	20.93
192.391	20.71
192.771	22.14
193.151	23.37
193.531	21.74
193.91	23.63
194.29	21.28
194.67	23.7
195.049	20.51
195.429	18.02
195.808	19.73
196.188	16.7
196.567	18.29
196.946	19.25
197.326	19.13
197.705	19.89
198.084	17.95
198.464	14.09
198.843	12.19
199.222	18.88
199.601	15.42
199.98	19.47
200.359	21.27
200.738	22.94
201.117	21.58
201.496	20.1
201.875	20.66
202.254	20.98
202.632	18.96
203.011	19.49
203.39	18.27
203.768	19.31
204.147	16.93
204.525	14.47
204.904	14.59
205.282	12.04
205.661	10.73
206.039	8.68
206.418	8.25
206.796	9.98
207.174	13.39
207.552	14.46
207.931	15.08
208.309	15.17
208.687	11.67
209.065	13.35
209.443	11.07
209.821	11.34
210.199	10.73
210.577	11.46
210.954	11.19
211.332	10.9
211.71	9.24
212.088	11.4
212.465	11.42
212.843	11.02
213.221	7.73
213.598	8.66
213.976	8.2
214.353	12.03
214.731	12.73
215.108	13.77
215.485	14.96
215.863	12.4
216.24	10.85
216.617	8.25
216.994	7.37
217.371	6.95
217.749	7.19
218.126	5.8
218.503	4.84
218.88	3.53
219.256	3.62
219.633	2.05
220.01	0.97
220.387	2.8
220.764	2.77
221.14	3.44
221.517	3.73
221.894	2.8
222.27	2.88
222.647	4.09
223.023	3.97
223.4	5.63
223.776	3.59
224.153	3.49
224.529	2.87
224.905	2.77
225.282	3.57
225.658	4.21
226.034	4.29
226.41	3.97
226.786	3.92
227.162	3.89
227.538	4.35
227.914	4.21
228.29	4.4
228.666	3.92
229.042	3.9
229.418	4.27
229.793	3.91
230.169	4.01
230.545	3.77
230.92	3.55
231.296	4.19
231.672	4.06
232.047	3.97
232.422	4.14
232.798	3.97
233.173	4.17
233.549	4.35
233.924	4.52
234.299	4.46
234.674	4.59
235.05	4.53
235.425	4.47
235.8	4.33
236.175	4.27
236.55	4.18
236.925	4.15
237.3	3.96
237.675	3.9
238.049	3.93
238.424	4.15
238.799	3.96
239.174	3.94
239.548	3.98
239.923	3.87
240.297	3.85
240.672	3.62
241.046	3.61
241.421	3.54
241.795	3.47
242.17	3.38
242.544	3.22
242.918	3.15
243.293	3.06
243.667	3.19
244.041	3.09
244.415	2.98
244.789	3
245.163	3.04
245.537	3.1
245.911	3.08
246.285	3.08
246.659	3.09
247.033	3.04
247.406	2.99
247.78	2.84
248.154	2.92
248.528	2.9
248.901	2.84
249.275	2.9
249.648	2.93
250.022	2.97
250.395	2.97
250.769	3
251.142	2.96
251.515	2.93
251.888	3
252.262	3.05
252.635	3.12
253.008	3.01
253.381	2.99
253.754	2.94
254.127	3.03
254.5	2.99
254.873	2.91
255.246	2.96
255.619	2.99
255.992	3.06
256.364	3.07
256.737	3.09
257.11	3.17
257.483	3
257.855	3.02
258.228	3.05
258.6	3.02
258.973	2.94
259.345	2.93
259.718	2.92
260.09	2.87
260.462	2.77
260.834	2.78
261.207	2.72
261.579	2.71
261.951	2.68
262.323	2.66
262.695	2.66
263.067	2.71
263.439	2.62
263.811	2.67
264.183	2.64
264.555	2.64
264.927	2.61
265.298	2.62
265.67	2.52
266.042	2.5
266.413	2.41
266.785	2.54
267.156	2.55
267.528	2.4
267.899	2.4
268.271	2.43
268.642	2.43
269.013	2.52
269.385	2.57
269.756	2.66
270.127	2.63
270.498	2.65
270.87	2.58
271.241	2.54
271.612	2.49
271.983	2.46
272.354	2.42
272.724	2.42
273.095	2.44
273.466	2.46
273.837	2.43
274.208	2.44
274.578	2.39
274.949	2.37
275.32	2.41
275.69	2.37
276.061	2.3
276.431	2.3
276.802	2.37
277.172	2.37
277.542	2.3
277.913	2.29
278.283	2.24
278.653	2.22
279.023	2.14
279.394	2.15
279.764	2.12
280.134	2.14
280.504	2.12
280.874	2.17
281.244	2.14
281.614	2.12
281.983	2.09
282.353	2.01
282.723	1.97
283.093	1.96
283.462	1.96
283.832	1.93
284.202	2.03
284.571	1.96
284.941	2
285.31	2.1
285.68	2.06
286.049	2.1
286.418	2.02
286.788	2.06
287.157	2.05
287.526	2.02
287.895	2.01
288.264	1.99
288.633	1.93
289.002	1.96
289.371	1.93
289.74	1.94
290.109	1.91
290.478	1.95
290.847	2
291.216	1.96
291.585	1.94
291.953	2.01
292.322	2.04
292.691	1.99
293.059	2
293.428	1.94
293.796	1.93
294.165	1.93
294.533	1.86
294.901	1.9
295.27	1.84
295.638	1.95
296.006	1.92
296.374	1.84
296.743	1.81
297.111	1.87
297.479	1.87
297.847	1.85
298.215	1.82
298.583	1.77
298.95	1.77
299.318	1.76
299.686	1.74
300.054	1.69
300.422	1.7
300.789	1.79
301.157	1.72
301.525	1.62
301.892	1.6
302.26	1.62
302.627	1.64
302.994	1.6
303.362	1.6
303.729	1.63
304.097	1.59
304.464	1.61
304.831	1.56
305.198	1.56
305.565	1.57
305.932	1.54
306.299	1.48
306.666	1.55
307.033	1.59
307.4	1.6
307.767	1.58
308.134	1.56
308.501	1.55
308.867	1.45
309.234	1.43
309.601	1.4
309.967	1.35
310.334	1.36
310.701	1.34
311.067	1.3
311.433	1.32
311.8	1.35
312.166	1.33
312.533	1.3
312.899	1.27
313.265	1.23
313.631	1.21
313.997	1.17
314.363	1.12
314.729	1.09
315.096	1.1
315.461	1.07
315.827	0.92
316.193	0.9
316.559	0.8
316.925	0.85
317.291	0.83
317.656	0.85
318.022	0.95
318.388	0.88
318.753	0.91
319.119	0.9
319.484	0.88
319.85	0.88
320.215	0.98
320.581	0.91
320.946	0.86
321.311	0.88
321.676	0.87
322.042	0.86
322.407	0.81
322.772	0.73
323.137	0.74
323.502	0.76
323.867	0.9
324.232	0.82
324.597	0.84
324.962	0.97
325.327	0.99
325.691	1.13
326.056	1.11
326.421	1.09
326.785	1.11
327.15	1.02
327.514	1.11
327.879	1.15
328.243	1.17
328.608	1.28
328.972	1.35
329.337	1.22
329.701	1.23
330.065	1.34
330.429	1.38
330.794	1.33
331.158	1.34
331.522	1.47
331.886	1.54
332.25	1.5
332.614	1.47
332.978	1.29
333.342	1.39
333.705	1.43
334.069	1.43
334.433	1.36
334.797	1.23
335.16	1.25
335.524	1.27
335.887	1.22
336.251	1.26
336.614	1.28
336.978	1.25
337.341	1.21
337.705	1.04
338.068	1.1
338.431	1.14
338.794	1.1
339.158	1
339.521	0.94
339.884	1.02
340.247	0.9
340.61	0.82
340.973	0.72
341.336	0.76
341.699	0.73
342.062	0.84
342.424	0.71
342.787	0.67
343.15	0.58
343.512	0.69
343.875	0.69
344.238	0.63
344.6	0.56
344.963	0.57
345.325	0.53
345.688	0.45
346.05	0.37
346.412	0.43
346.775	0.52
347.137	0.45
347.499	0.47
347.861	0.48
348.223	0.51
348.585	0.65
348.947	0.55
349.309	0.62
349.671	0.62
350.033	0.7
350.395	0.71
350.757	0.86
351.118	0.8
351.48	0.85
351.842	0.79
352.203	0.87
352.565	0.75
352.927	0.79
353.288	0.92
353.65	0.98
354.011	0.96
354.372	1.01
354.734	1.07
355.095	1.16
355.456	1.19
355.817	1.11
356.179	1.09
356.54	1.09
356.901	1.15
357.262	1.11
357.623	0.95
357.984	1.03
358.345	1.09
358.705	1.06
359.066	0.97
359.427	1.01
359.788	0.96
360.148	0.99
360.509	0.95
360.87	0.98
361.23	0.96
361.591	1.07
361.951	1.17
362.312	1.13
362.672	1.19
363.032	1.22
363.393	1.21
363.753	1.13
364.113	1.1
364.473	1.11
364.833	1.15
365.193	1.12
365.553	1.15
365.913	1.09
366.273	1.16
366.633	1.19
366.993	1.23
367.353	1.21
367.713	1.2
368.072	1.27
368.432	1.19
368.792	1.22
369.151	1.24
369.511	1.22
369.87	1.22
370.23	1.28
370.589	1.25
370.949	1.17
371.308	1.18
371.667	1.13
372.027	1.1
372.386	1.22
372.745	1.32
373.104	1.2
373.463	1.13
373.822	1.22
374.181	1.22
374.54	1.18
374.899	1.25
375.258	1.22
375.617	1.31
375.975	1.34
376.334	1.31
376.693	1.44
377.052	1.46
377.41	1.57
377.769	1.5
378.127	1.53
378.486	1.68
378.844	1.8
379.202	1.8
379.561	1.77
379.919	1.69
380.277	1.64
380.636	1.64
380.994	1.67
381.352	1.63
381.71	1.6
382.068	1.75
382.426	1.77
382.784	1.8
383.142	1.87
383.5	1.99
383.857	2.09
384.215	2.17
384.573	2.29
384.931	2.24
385.288	2.35
385.646	2.37
386.003	2.49
386.361	2.53
386.718	2.63
387.076	2.64
387.433	2.64
387.791	2.58
388.148	2.6
388.505	2.77
388.862	2.92
389.22	3.06
389.577	3.14
389.934	3.19
390.291	3.32
390.648	3.49
391.005	3.74
391.362	3.92
391.718	4.06
392.075	4.13
392.432	4.2
392.789	4.27
393.145	4.4
393.502	4.43
393.859	4.62
394.215	4.72
394.572	4.95
394.928	5.09
395.285	5.22
395.641	5.42
395.997	5.74
396.354	6
396.71	6.27
397.066	6.56
397.422	6.91
397.778	7.24
398.134	7.64
398.491	8.06
398.846	8.46
399.202	8.87
399.558	9.14
399.914	9.4
400.27	9.65
400.626	10.01
400.981	10.44
401.337	10.91
401.693	11.32
402.048	11.8
402.404	12.23
402.759	12.74
403.115	13.26
403.47	13.77
403.826	14.33
404.181	14.85
404.536	15.46
404.892	15.83
405.247	16.31
405.602	16.94
405.957	17.35
406.312	17.86
406.667	18.37
407.022	18.79
407.377	19.33
407.732	20.02
408.087	20.45
408.442	21.05
408.796	21.57
409.151	22.29
409.506	22.85
409.86	23.48
410.215	24.01
410.57	24.61
410.924	25.07
411.279	25.63
411.633	26.19
411.987	26.85
412.342	27.3
412.696	27.77
413.05	28.41
413.404	28.84
413.758	29.52
414.113	30.12
414.467	30.67
414.821	31.43
415.175	31.78
415.529	32.36
415.882	32.84
416.236	33.31
416.59	33.72
416.944	34.23
417.298	34.85
417.651	35.2
418.005	35.52
418.358	36.01
418.712	36.48
419.065	37
419.419	37.35
419.772	37.75
420.126	38.17
420.479	38.45
420.832	38.75
421.185	39.04
421.539	39.35
421.892	39.63
422.245	39.99
422.598	40.24
422.951	40.61
423.304	40.76
423.657	40.94
424.01	41.4
424.363	41.62
424.715	41.93
425.068	42.19
425.421	42.49
425.773	42.81
426.126	42.96
426.479	43.35
426.831	43.6
427.184	43.76
427.536	43.98
427.889	44.18
428.241	44.44
428.593	44.71
428.945	44.98
429.298	45.33
429.65	45.48
430.002	45.78
430.354	45.93
430.706	46.09
431.058	46.15
431.41	46.46
431.762	46.63
432.114	46.78
432.466	47
432.817	47.21
433.169	47.48
433.521	47.74
433.872	47.85
434.224	47.85
434.576	47.94
434.927	48.15
435.279	48.24
435.63	48.43
435.981	48.71
436.333	48.74
436.684	48.87
437.035	49
437.387	49.08
437.738	49.13
438.089	49.16
438.44	49.37
438.791	49.41
439.142	49.62
439.493	49.81
439.844	50.13
440.195	50.01
440.545	50.01
440.896	50.2
441.247	50.22
441.598	50.12
441.948	50.07
442.299	50.15
442.649	50.39
443	50.59
443.35	50.62
443.701	50.64
444.051	50.83
444.401	50.93
444.752	50.9
445.102	51
445.452	50.9
445.802	51
446.152	51.21
446.502	51.24
446.852	51.26
447.202	51.32
447.552	51.45
447.902	51.39
448.252	51.31
448.602	51.63
448.952	51.65
449.301	51.87
449.651	51.89
450.001	51.86
450.35	52.07
450.7	52.17
451.049	52.19
451.399	52.28
451.748	52.39
452.097	52.44
452.447	52.34
452.796	52.33
453.145	52.29
453.494	52.35
453.843	52.37
454.193	52.53
454.542	52.61
454.891	52.38
455.239	52.41
455.588	52.33
455.937	52.21
456.286	52.14
456.635	52.15
456.984	52.22
457.332	51.82
457.681	51.97
458.03	51.68
458.378	51.7
458.727	51.87
459.075	51.65
459.423	51.69
459.772	51.56
460.12	51.2
460.468	50.98
460.817	50.86
461.165	50.86
461.513	50.8
461.861	50.83
462.209	50.64
462.557	50.56
462.905	50.52
463.253	50.45
463.601	50.54
463.949	50.52
464.297	50.5
464.644	50.45
464.992	50.35
465.34	50.4
465.687	50.34
466.035	50.25
466.383	50.11
466.73	50.25
467.078	50.12
467.425	50.03
467.772	50.08
468.12	49.95
468.467	49.9
468.814	50.08
469.161	50.09
469.508	50.08
469.856	50.04
470.203	49.79
470.55	49.72
470.897	49.56
471.243	49.62
471.59	49.53
471.937	49.31
472.284	49.24
472.631	49.17
472.977	49.12
473.324	49.17
473.671	49.14
474.017	48.89
474.364	48.78
474.71	48.59
475.057	48.54
475.403	48.38
475.749	48.27
476.096	48.11
476.442	47.99
476.788	47.89
477.134	47.69
477.48	47.55
477.826	47.4
478.172	47.29
478.518	47.27
478.864	47.27
479.21	47.12
479.556	47.02
479.902	46.71
480.248	46.51
480.593	46.36
480.939	46.18
481.285	45.98
481.63	45.85
481.976	45.6
482.321	45.55
482.667	45.54
483.012	45.36
483.357	45.33
483.703	45.15
484.048	45.07
484.393	44.92
484.738	44.76
485.084	44.67
485.429	44.54
485.774	44.53
486.119	44.45
486.464	44.34
486.808	44.18
487.153	43.88
487.498	43.7
487.843	43.5
488.188	43.48
488.532	43.38
488.877	43.2
489.222	43.11
489.566	42.93
489.911	42.85
490.255	42.74
490.6	42.66
490.944	42.35
491.288	42.06
491.633	41.93
491.977	41.61
492.321	41.44
492.665	41.1
493.009	40.96
493.353	40.84
493.697	40.64
494.041	40.54
494.385	40.34
494.729	40.1
495.073	39.94
495.417	39.75
495.76	39.64
496.104	39.52
496.448	39.32
496.791	39.04
497.135	38.89
497.479	38.72
497.822	38.55
498.165	38.41
498.509	38.15
498.852	37.89
499.196	37.77
499.539	37.68
499.882	37.7
500.225	37.62
500.568	37.54
500.911	37.49
501.254	37.51
501.597	37.41
501.94	37.32
502.283	37.16
502.626	36.95
502.969	36.78
503.312	36.56
503.654	36.37
503.997	36.31
504.34	36.26
504.682	36.03
505.025	36
505.367	35.93
505.71	35.65
506.052	35.47
506.395	35.35
506.737	35.21
507.079	35.09
507.421	35.06
507.764	34.84
508.106	34.78
508.448	34.53
508.79	34.38
509.132	34.27
509.474	34.04
509.816	33.82
510.158	33.72
510.499	33.55
510.841	33.45
511.183	33.38
511.525	33.2
511.866	33.21
512.208	33.13
512.549	32.98
512.891	32.91
513.232	32.8
513.574	32.62
513.915	32.4
514.256	32.35
514.598	32.34
514.939	32.14
515.28	31.94
515.621	31.89
515.962	31.69
516.303	31.66
516.644	31.5
516.985	31.38
517.326	31.19
517.667	31.09
518.008	30.97
518.349	30.9
518.69	30.86
519.03	30.7
519.371	30.66
519.712	30.46
520.052	30.43
520.393	30.26
520.733	30.17
521.074	29.98
521.414	29.8
521.754	29.71
522.095	29.59
522.435	29.61
522.775	29.63
523.115	29.5
523.455	29.38
523.795	29.38
524.135	29.28
524.475	29.3
524.815	29.02
525.155	28.94
525.495	28.84
525.835	28.8
526.175	28.72
526.514	28.74
526.854	28.58
527.194	28.44
527.533	28.29
527.873	28.11
528.212	28.03
528.552	28.04
528.891	27.98
529.23	27.95
529.57	27.88
529.909	27.7
530.248	27.56
530.587	27.57
530.927	27.3
531.266	27.12
531.605	27
531.944	26.94
532.283	26.86
532.621	26.67
532.96	26.53
533.299	26.53
533.638	26.42
533.977	26.51
534.315	26.47
534.654	26.31
534.992	26.26
535.331	26.23
535.67	26.06
536.008	26.15
536.346	26.12
536.685	26.15
537.023	25.97
537.361	25.92
537.7	25.66
538.038	25.66
538.376	25.53
538.714	25.63
539.052	25.57
539.39	25.66
539.728	25.65
540.066	25.58
540.404	25.56
540.741	25.5
541.079	25.53
541.417	25.6
541.755	25.52
542.092	25.35
542.43	25.22
542.767	25.07
543.105	25.16
543.442	25.01
543.78	25.13
544.117	25.01
544.454	24.76
544.792	24.6
545.129	24.39
545.466	24.36
545.803	24.3
546.14	24.43
546.477	24.36
546.814	24.47
547.151	24.38
547.488	24.35
547.825	24.23
548.162	24.27
548.499	24.31
548.835	24.31
549.172	24.27
549.509	24.18
549.845	23.89
550.182	23.76
550.518	23.73
550.855	23.79
551.191	23.8
551.528	23.72
551.864	23.88
552.2	23.75
552.537	23.93
552.873	24.05
553.209	24.12
553.545	24.15
553.881	24.23
554.217	24.24
554.553	24.18
554.889	24.28
555.225	24.29
555.561	24.34
555.896	24.26
556.232	24.38
556.568	24.39
556.903	24.31
557.239	24.41
557.575	24.48
557.91	24.49
558.245	24.55
558.581	24.81
558.916	24.96
559.252	24.85
559.587	24.92
559.922	24.85
560.257	24.74
560.592	24.79
560.928	24.73
561.263	24.71
561.598	24.78
561.933	24.88
562.267	24.76
562.602	24.71
562.937	24.71
563.272	24.67
563.607	24.64
563.941	24.62
564.276	24.74
564.611	24.66
564.945	24.66
565.28	24.83
565.614	24.76
565.949	24.87
566.283	25.05
566.617	25.15
566.951	25.2
567.286	25.25
567.62	25.29
567.954	25.36
568.288	25.54
568.622	25.61
568.956	25.69
569.29	25.78
569.624	25.88
569.958	25.91
570.292	25.94
570.626	26.03
570.959	26.11
571.293	26.21
571.627	26.28
571.96	26.41
572.294	26.44
572.627	26.49
572.961	26.64
573.294	26.72
573.627	26.84
573.961	27.01
574.294	26.97
574.627	27.07
574.961	27.15
575.294	27.09
575.627	27.04
575.96	27.09
576.293	27.08
576.626	27.05
576.959	27.16
577.292	27.2
577.624	27.22
577.957	27.19
578.29	27.17
578.623	27.26
578.955	27.3
579.288	27.39
579.62	27.4
579.953	27.48
580.285	27.52
580.618	27.55
580.95	27.53
581.282	27.53
581.615	27.48
581.947	27.44
582.279	27.49
582.611	27.58
582.943	27.56
583.275	27.57
583.607	27.81
583.939	28.03
584.271	28.18
584.603	28.27
584.935	28.38
585.267	28.43
585.598	28.52
585.93	28.51
586.262	28.61
586.593	28.84
586.925	28.88
587.256	29.01
587.588	29.07
587.919	29.22
588.25	29.22
588.582	29.21
588.913	29.35
589.244	29.51
589.575	29.68
589.907	29.89
590.238	29.89
590.569	29.91
590.9	30.13
591.231	30.29
591.562	30.42
591.892	30.34
592.223	30.34
592.554	30.45
592.885	30.53
593.215	30.65
593.546	30.7
593.877	30.7
594.207	30.91
594.538	31.2
594.868	31.31
595.198	31.46
595.529	31.47
595.859	31.55
596.189	31.73
596.52	31.93
596.85	32.03
597.18	32.16
597.51	32.22
597.84	32.35
598.17	32.53
598.5	32.8
598.83	32.98
599.16	33.14
599.489	33.18
599.819	33.47
600.149	33.78
600.479	34.2
600.808	34.41
601.138	34.64
601.467	34.89
601.797	35.2
602.126	35.5
602.456	35.69
602.785	35.84
603.114	36.01
603.443	36.32
603.773	36.69
604.102	37.08
604.431	37.36
604.76	37.69
605.089	38.06
605.418	38.21
605.747	38.65
606.076	38.88
606.405	39.07
606.733	39.21
607.062	39.45
607.391	39.5
607.72	39.76
608.048	39.87
608.377	39.9
608.705	40.19
609.034	40.27
609.362	40.63
609.69	40.95
610.019	41.2
610.347	41.46
610.675	41.66
611.004	41.72
611.332	42.03
611.66	42.25
611.988	42.54
612.316	42.76
612.644	42.82
612.972	42.82
613.3	43.13
613.627	43.57
613.955	43.76
614.283	44.11
614.611	44.25
614.938	44.68
615.266	45
615.593	45.57
615.921	46.07
616.248	46.44
616.576	46.94
616.903	47.17
617.23	47.64
617.558	48.12
617.885	48.3
618.212	48.74
618.539	49.22
618.866	49.59
619.193	49.83
619.52	49.97
619.847	50.07
620.174	50.32
620.501	50.39
620.828	50.66
621.155	51.18
621.481	51.28
621.808	51.5
622.135	51.61
622.461	51.48
622.788	51.66
623.114	51.95
623.441	51.78
623.767	51.74
624.093	51.75
624.42	52.38
624.746	52.83
625.072	52.65
625.398	53.1
625.725	53.2
626.051	53.49
626.377	53.65
626.703	53.21
627.029	53.63
627.354	54.3
627.68	54.53
628.006	54.95
628.332	55.19
628.658	55.64
628.983	55.77
629.309	56.03
629.634	56.41
629.96	56.41
630.285	57.17
630.611	57.11
630.936	57.51
631.262	57.34
631.587	57.45
631.912	57.33
632.237	57.91
632.562	57.83
632.887	57.89
633.213	58.85
633.538	59.22
633.863	59.57
634.187	59.35
634.512	59.1
634.837	59.78
635.162	59.6
635.487	59.33
635.811	59.49
636.136	59.72
636.461	59.92
636.785	59.84
637.11	60.58
637.434	60.49
637.758	60.75
638.083	61.39
638.407	60.37
638.731	61.34
639.056	61.86
639.38	61.71
639.704	62.3
640.028	63.08
640.352	63.25
640.676	62.41
641	62.82
641.324	61.82
641.648	61.79
641.972	61.92
642.295	62.8
642.619	63.08
642.943	62.95
643.266	62.79
643.59	62.53
643.913	62.73
644.237	62.76
644.56	62.15
644.884	62.57
645.207	62.06
645.53	62.2
645.854	61.74
646.177	61.8
646.5	62.5
646.823	62.66
647.146	63.01
647.469	63.68
647.792	64.2
648.115	63.86
648.438	64.19
648.761	65.69
649.084	65.83
649.406	66.18
649.729	65.09
650.052	64.95
650.374	65.08
650.697	65.23
651.019	65.26
651.342	65.43
651.664	65.7
651.987	65.58
652.309	65.77
652.631	66.02
652.953	66.07
653.276	66.05
653.598	66.21
653.92	66.22
654.242	66.22
654.564	66.32
654.886	66.16
655.208	65.89
655.53	65.6
655.851	65.35
656.173	65.43
656.495	65.42
656.816	65.16
657.138	65.04
657.46	64.64
657.781	66.52
658.103	67.74
658.424	67.72
658.746	67.54
659.067	67.84
659.388	67.21
659.709	67.56
660.031	67.72
660.352	67
660.673	67.11
660.994	66.87
661.315	66.72
661.636	66.06
661.957	67.2
662.278	67.26
662.599	66.5
662.919	66.8
663.24	67.72
663.561	68.7
663.881	68.98
664.202	69.49
664.523	68.04
664.843	67.83
665.164	66.3
665.484	66.49
665.804	66.49
666.125	66.23
666.445	65.92
666.765	66.48
667.085	66.58
667.405	67.24
667.726	66.65
668.046	66.72
668.366	67.74
668.686	68.1
669.005	67.82
669.325	68.1
669.645	68.68
669.965	68.38
670.285	67.67
670.604	68.44
670.924	68.33
671.243	68
671.563	67.21
671.882	67.05
672.202	66.79
672.521	67.7
672.841	67.63
673.16	68.6
673.479	68.96
673.798	68.13
674.117	67.93
674.437	68.46
674.756	68.59
675.075	68.45
675.394	68.97
675.713	69.53
676.031	69.69
676.35	69.17
676.669	68.66
676.988	68.58
677.306	67.68
677.625	66.99
677.944	66.29
678.262	66.78
678.581	66.77
678.899	67.1
679.218	67.42
679.536	68.16
679.854	69
680.172	69.35
680.491	69.84
680.809	69.27
681.127	70.1
681.445	69.86
681.763	71
682.081	71.14
682.399	71.15
682.717	70.82
683.035	70.7
683.352	70.62
683.67	70.2
683.988	71.37
684.306	72.11
684.623	71.86
684.941	71.23
685.258	72.45
685.576	73.16
685.893	73.38
686.211	73.74
686.528	74.49
686.845	74.19
687.162	73.71
687.48	73.93
687.797	74.34
688.114	73.34
688.431	72.44
688.748	73.51
689.065	72.38
689.382	71.71
689.699	71.18
690.015	70.79
690.332	70.74
690.649	70.86
690.966	70.94
691.282	70.33
691.599	70.92
691.915	70.25
692.232	69.91
692.548	70.74
692.865	71.33
693.181	71.15
693.497	70.15
693.813	70.09
694.13	70.35
694.446	69.86
694.762	70.68
695.078	71.12
695.394	71.53
695.71	69.57
696.026	69.55
696.342	69.27
696.658	69.03
696.973	69.45
697.289	70.95
697.605	71.52
697.92	71.61
698.236	71.63
698.551	71.16
698.867	71.71
699.182	72.09
699.498	72.39
699.813	72.32
700.128	70.29
700.444	69.6
700.759	69.89
701.074	69.32
701.389	70.17
701.704	70.25
702.019	69.07
702.334	68.88
702.649	68.23
702.964	68.09
703.279	68.25
703.594	69.29
703.908	69.9
704.223	70.26
704.538	69.5
704.852	70.45
705.167	68.88
705.481	69.07
705.796	68.39
706.11	68.7
706.425	68.29
706.739	67.99
707.053	67.68
707.368	67.73
707.682	67.34
707.996	67.19
708.31	67.53
708.624	67.75
708.938	68.61
709.252	68.2
709.566	68.55
709.88	69.27
710.193	70.11
710.507	70.16
710.821	71.21
711.135	69.68
711.448	69.21
711.762	71.01
712.075	70.07
712.389	70.56
712.702	68.62
713.015	69.64
713.329	69.1
713.642	69.29
713.955	68.92
714.269	69.92
714.582	69.54
714.895	69.51
715.208	69.92
715.521	68.72
715.834	70.63
716.147	69.36
716.459	69.07
716.772	68.45
717.085	68.84
717.398	68.97
717.71	68.92
718.023	67.15
718.336	66.59
718.648	65.08
718.961	66.34
719.273	67.18
719.585	65.27
719.898	67.19
720.21	68.14
720.522	69.79
720.834	68.15
721.147	66.89
721.459	68.83
721.771	68.53
722.083	66.91
722.395	67.5
722.707	67.54
723.019	66.74
723.33	69.1
723.642	68.86
723.954	68.89
724.265	68.47
724.577	68.61
724.889	68.04
725.2	67.87
725.512	68.72
725.823	69.77
726.135	70.37
726.446	70.46
726.757	68.72
727.068	69.35
727.38	69.35
727.691	67.92
728.002	66.68
728.313	66.01
728.624	67.51
728.935	68.27
729.246	68.02
729.557	68.96
729.867	69.72
730.178	70.02
730.489	70.12
730.8	69.88
731.11	68.71
731.421	68.14
731.731	69.51
732.042	69.97
732.352	69.43
732.663	68.97
732.973	68.37
733.283	67.56
733.594	66.98
733.904	66.31
734.214	65.98
734.524	68.52
734.834	67.87
735.144	68.83
735.454	70.72
735.764	73.36
736.074	74.07
736.384	72.48
736.694	71.49
737.003	70.16
737.313	69.62
737.623	70.36
737.932	68.64
738.242	69.28
738.551	67.82
738.861	68.78
739.17	69.32
739.479	67.25
739.789	67.16
740.098	67.83
740.407	70.69
740.716	72.13
741.025	70.33
741.334	69.9
741.643	71.59
741.952	74.18
742.261	71.81
742.57	71.79
742.879	69.34
743.188	68.93
743.497	64.77
743.805	63.73
744.114	66.58
744.422	67.06
744.731	66.32
745.04	66.18
745.348	66.35
745.656	68.36
745.965	67.83
746.273	71.71
746.581	70.67
746.889	69.96
747.198	69.64
747.506	70.51
747.814	71.19
748.122	68.44
748.43	67
748.738	65.28
749.046	64.58
749.353	62.19
749.661	61.58
749.969	62.6
750.277	62.5
750.584	61.93
750.892	62.15
751.199	62.45
751.507	61.92
751.814	61.49
752.122	63.66
752.429	65.32
752.736	66.2
753.044	66.42
753.351	67.23
753.658	67.08
753.965	66.48
754.272	68.3
754.579	66.97
754.886	67.76
755.193	67.28
755.5	65.66
755.807	66.04
756.114	66.71
756.42	68.8
756.727	71.07
757.034	72.77
757.34	74.28
757.647	73.97
757.953	72.91
758.26	74.44
758.566	75.29
758.872	76.15
759.179	80.31
759.485	80.8
759.791	78
760.097	75.74
760.403	75.81
760.709	74.9
761.015	72.22
761.321	73.66
761.627	72.44
761.933	69.22
762.239	72.26
762.545	72.95
762.851	72.41
763.156	74.21
763.462	77.83
763.767	79.53
764.073	78.43
764.378	76.36
764.684	78.69
764.989	76.41
765.295	73.44
765.6	74.52
765.905	77.22
766.21	76.95
766.515	76.19
766.821	73.95
767.126	72.29
767.431	76.59
767.736	80.73
768.041	77.85
768.345	75.93
768.65	80.34
768.955	79.13
769.26	82.31
769.564	82.32
769.869	81.72
770.174	81.61
770.478	87.54
770.783	86.39
771.087	84.09
771.391	84.55
771.696	85.1
772	86.98
772.304	84.56
772.608	85.32
772.913	90.49
773.217	93.39
773.521	90.41
773.825	89
774.129	90.37
774.433	92.65
774.736	93.29
775.04	90.27
775.344	89.36
775.648	87.76
775.951	91.16
776.255	90.48
776.559	88.96
776.862	87.31
777.166	88.38
777.469	86.95
777.772	93.07
778.076	90.54
778.379	86.93
778.682	86.37
778.985	87.77
779.289	88.35
779.592	85.62
779.895	86.06
780.198	93.68
780.501	93.52
780.804	96.49
781.106	92.14
781.409	93.26
781.712	93.81
782.015	83.52
782.317	87.35
782.62	83.32
782.923	87.53
783.225	89.69
783.527	85.76
783.83	88.39
784.132	88.27
784.435	88.35
784.737	90.85
785.039	92.55
785.341	84.63
785.643	83.23
785.945	94.68
786.248	99.01
786.55	96.46
786.851	100.36
787.153	98.82
787.455	96.15
787.757	86.84
788.059	85.12
788.36	82.52
788.662	87.7
788.964	87.91
789.265	82.37
789.567	85.59
789.868	78.81
790.17	92.17
790.471	88.8
790.772	87.74
791.074	89.04
791.375	89.11
791.676	89.28
791.977	84.7
792.278	84.47
792.579	84.8
792.88	84.13
793.181	83.84
793.482	73.93
793.783	72.16
794.083	66.94
794.384	63.21
794.685	65.41
794.986	66.89
795.286	61.96
795.587	53.88
795.887	47.63
796.188	49.78
796.488	40.59
796.788	42.43
797.089	39.95
797.389	41.98
797.689	34.26
797.989	32.54
798.289	27.27
798.589	29.11
798.889	15.71
799.189	17.58
799.489	21.38
799.789	9.47
800.089	5.5
800.389	8.32
800.688	5.32
800.988	7.16
801.288	-3.29
801.587	-2.32
801.887	3.88
802.186	8.89
802.486	-9.21
802.785	-20.24
803.085	5.59
803.384	29.48
803.683	13.2
803.982	27.57
804.281	7.14
804.58	9.56
804.879	21.1
805.178	52.29
805.477	64.73
805.776	126.61
806.075	84.75
806.374	157.22
806.673	89.19
806.971	72.16
807.27	105.41
807.569	172.81
807.867	224.67
808.166	230.34
808.464	275.6
808.763	196.93
809.061	133
809.359	100.58
809.658	56.6
809.956	110.66
810.254	136.86
810.552	147.36
810.85	127.23
811.148	137.12
811.446	79.24
811.744	122
812.042	130.36
812.34	102.94
812.638	72.34
812.935	67.82
813.233	36.05
813.531	53.74
813.828	53.83
814.126	40.87
814.423	63.66
814.721	116.41
815.018	97.91
815.316	99.53
815.613	135.38
815.91	151.02
816.207	133.43
816.504	84.81
816.802	112.2
817.099	147.98
817.396	121.41
817.693	89.46
817.99	95.34
818.286	59.05
818.583	97.88
818.88	118.62
819.177	106.27
819.473	74.11
819.77	88.4
820.067	69.75
820.363	57.54
820.66	32.47
820.956	36.75
821.252	27.25
821.549	46.44
821.845	39.15
822.141	31.12
822.437	16.69
822.734	14.32
823.03	14.65
823.326	9.26
823.622	12.83
823.918	29.5
824.213	23.84
824.509	43.29
824.805	42.56
825.101	56.66
825.397	57.33
825.692	53.67
825.988	51.49
826.283	36.31
826.579	41.13
826.874	37.04
827.17	57.23
827.465	60.66
827.76	96.22
828.056	217.05
828.351	111.35
828.646	110.72
828.941	89.6
829.236	112.95
829.531	107.08
829.826	118.05
830.121	98.71
830.416	75.06
830.711	76.25
831.006	65.6
831.3	69
831.595	86.29
831.89	71.05
832.184	76.86
832.479	58.67
832.773	60.53
833.068	66.95
833.362	61.97
833.656	79.1
833.951	53.96
834.245	45.31
834.539	11.63
834.833	32.98
835.127	31.68
835.421	28.39
835.715	18.66
836.009	5.58
836.303	11.01
836.597	3
836.891	7.13
837.185	-41.64
837.478	-191.68
837.772	-35.29
838.066	-26.27
838.359	-10.07
838.653	-9.25
838.946	-40.69
839.24	10.52
839.533	30.17
839.826	42.22
840.119	14.24
840.413	-17.67
840.706	4.03
840.999	11.51
841.292	27.07
841.585	37.66
841.878	31.39
842.171	6.1
842.464	-9.81
842.757	-10.87
843.049	-39.31
843.342	-25.75
843.635	-22.47
843.927	-12.66
844.22	-5.98
844.513	5.62
844.805	9.77
845.098	6.69
845.39	10.13
845.682	-9.97
845.975	-3.85
846.267	5.28
846.559	-25.61
846.851	-27.97
847.143	-26.56
847.435	-10.89
847.727	14.25
848.019	-2.42
848.311	2.97
848.603	5
848.895	7.93
849.186	5.38
849.478	24.99
849.77	22.1
850.061	12.97
850.353	30.56
850.645	37.64
850.936	48.35
851.227	52.8
851.519	47.9
851.81	46.1
852.101	48.59
852.393	55.29
852.684	38.29
852.975	37.23
853.266	40.82
853.557	37.17
853.848	48.05
854.139	63.15
854.43	60.98
854.72	53.53
855.011	56.03
855.302	62.64
855.593	67.69
855.883	71.8
856.174	51.23
856.464	70.65
856.755	77.01
857.045	79.11
857.336	80.44
857.626	81.29
857.916	82.27
858.206	102.17
858.497	153.65
858.787	121.05
859.077	147.05
859.367	143.5
859.657	105.73
859.947	96.63
860.237	134.11
860.527	118.77
860.816	136.03
861.106	117.57
861.396	83.1
861.685	60.06
861.975	64.34
862.265	74.88
862.554	64.55
862.844	75.15
863.133	76.44
863.422	71.51
863.712	45.32
864.001	20.79
864.29	19.09
864.579	14.06
864.868	8.62
865.157	6.81
865.446	12.65
865.735	-1.13
866.024	4.28
866.313	0.29
866.602	1.84
866.891	-4.94
867.179	-26.78
867.468	-19.53
