Data from T2_Reflection__69__01-13-44-887.txt Node

Date: Fri Jun 04 01:13:44 CEST 2021
User: mabdelazizm
Spectrometer: FLMS18565
Trigger mode: 0
Integration Time (sec): 2.000000E0
Scans to average: 1
Electric dark correction enabled: true
Nonlinearity correction enabled: false
Boxcar width: 12
XAxis mode: Wavelengths
Number of Pixels in Spectrum: 2048
>>>>>Begin Spectral Data<<<<<
179.071	366.82
179.452	80.17
179.833	93.81
180.214	1750
180.595	163.75
180.977	225.62
181.358	910.2
181.739	-272.73
182.12	-38.23
182.501	-88.84
182.882	-56.91
183.262	-52.07
183.643	-28.32
184.024	-46.87
184.405	-18.2
184.786	-3.01
185.166	-2.96
185.547	19.8
185.927	23.04
186.308	18.63
186.689	21.04
187.069	11.1
187.449	11.56
187.83	16.19
188.21	19.46
188.59	24.83
188.971	27.38
189.351	28.55
189.731	33.87
190.111	36.18
190.491	35.41
190.871	33.61
191.251	33.49
191.631	36.01
192.011	39.54
192.391	36.93
192.771	38.16
193.151	38.08
193.531	39.95
193.91	40.02
194.29	38.77
194.67	41.85
195.049	40.93
195.429	39.03
195.808	38.19
196.188	36.47
196.567	34.95
196.946	37.15
197.326	35.04
197.705	33.84
198.084	31.36
198.464	28.68
198.843	26.68
199.222	25.6
199.601	24.83
199.98	24.46
200.359	24.75
200.738	28.42
201.117	26.7
201.496	24.94
201.875	26.19
202.254	23.59
202.632	22.4
203.011	22.99
203.39	20.75
203.768	21.29
204.147	18.56
204.525	18.04
204.904	18.37
205.282	17.59
205.661	17.64
206.039	19.96
206.418	18.76
206.796	19.83
207.174	21.52
207.552	22.99
207.931	21.58
208.309	22.18
208.687	20.68
209.065	21.9
209.443	21.87
209.821	21.12
210.199	18.11
210.577	17.56
210.954	18.68
211.332	16.36
211.71	18.76
212.088	18.47
212.465	18.77
212.843	18.32
213.221	16.21
213.598	17.88
213.976	17.48
214.353	18.13
214.731	17.58
215.108	18.55
215.485	19.34
215.863	18.58
216.24	16.47
216.617	15.54
216.994	16.97
217.371	16.23
217.749	16.53
218.126	14.44
218.503	12.19
218.88	11.87
219.256	10.42
219.633	9.72
220.01	10.38
220.387	10.15
220.764	10.17
221.14	8.75
221.517	9.26
221.894	8.07
222.27	8.16
222.647	8.64
223.023	8.31
223.4	7.47
223.776	5.68
224.153	6.2
224.529	5.35
224.905	4.11
225.282	4.24
225.658	5.04
226.034	4.57
226.41	4.16
226.786	4.02
227.162	4.2
227.538	4.68
227.914	4.73
228.29	4.17
228.666	4.09
229.042	3.95
229.418	3.62
229.793	3.47
230.169	3.6
230.545	3.62
230.92	3.53
231.296	3.68
231.672	3.82
232.047	3.68
232.422	3.41
232.798	3.6
233.173	3.69
233.549	3.72
233.924	3.74
234.299	3.99
234.674	4.02
235.05	3.84
235.425	3.56
235.8	3.36
236.175	3.44
236.55	3.12
236.925	3.08
237.3	3.02
237.675	3.11
238.049	3.18
238.424	3.27
238.799	3.11
239.174	3.14
239.548	3.13
239.923	3.12
240.297	3.07
240.672	3.08
241.046	2.99
241.421	2.98
241.795	2.86
242.17	2.84
242.544	2.68
242.918	2.64
243.293	2.58
243.667	2.63
244.041	2.57
244.415	2.53
244.789	2.68
245.163	2.65
245.537	2.62
245.911	2.73
246.285	2.74
246.659	2.71
247.033	2.68
247.406	2.73
247.78	2.72
248.154	2.72
248.528	2.71
248.901	2.71
249.275	2.68
249.648	2.65
250.022	2.61
250.395	2.55
250.769	2.62
251.142	2.69
251.515	2.61
251.888	2.79
252.262	2.84
252.635	2.83
253.008	2.75
253.381	2.66
253.754	2.69
254.127	2.69
254.5	2.7
254.873	2.61
255.246	2.6
255.619	2.59
255.992	2.62
256.364	2.62
256.737	2.51
257.11	2.52
257.483	2.46
257.855	2.44
258.228	2.45
258.6	2.44
258.973	2.4
259.345	2.33
259.718	2.29
260.09	2.17
260.462	2.12
260.834	2.11
261.207	1.97
261.579	1.97
261.951	2.01
262.323	1.92
262.695	1.93
263.067	1.91
263.439	1.87
263.811	1.9
264.183	1.87
264.555	1.9
264.927	1.88
265.298	1.91
265.67	1.88
266.042	1.9
266.413	1.81
266.785	1.89
267.156	1.94
267.528	1.84
267.899	1.84
268.271	1.84
268.642	1.83
269.013	1.9
269.385	1.9
269.756	1.88
270.127	1.94
270.498	2.04
270.87	1.99
271.241	1.98
271.612	1.97
271.983	2.01
272.354	1.98
272.724	1.92
273.095	1.94
273.466	1.94
273.837	1.87
274.208	1.83
274.578	1.75
274.949	1.67
275.32	1.72
275.69	1.69
276.061	1.67
276.431	1.6
276.802	1.67
277.172	1.69
277.542	1.66
277.913	1.73
278.283	1.7
278.653	1.67
279.023	1.67
279.394	1.63
279.764	1.62
280.134	1.61
280.504	1.58
280.874	1.62
281.244	1.59
281.614	1.59
281.983	1.61
282.353	1.57
282.723	1.62
283.093	1.65
283.462	1.69
283.832	1.69
284.202	1.8
284.571	1.66
284.941	1.74
285.31	1.81
285.68	1.86
286.049	1.83
286.418	1.72
286.788	1.83
287.157	1.8
287.526	1.76
287.895	1.75
288.264	1.73
288.633	1.7
289.002	1.7
289.371	1.62
289.74	1.61
290.109	1.64
290.478	1.7
290.847	1.65
291.216	1.66
291.585	1.64
291.953	1.63
292.322	1.65
292.691	1.61
293.059	1.63
293.428	1.57
293.796	1.62
294.165	1.54
294.533	1.44
294.901	1.38
295.27	1.38
295.638	1.51
296.006	1.41
296.374	1.38
296.743	1.42
297.111	1.52
297.479	1.45
297.847	1.38
298.215	1.32
298.583	1.27
298.95	1.25
299.318	1.26
299.686	1.15
300.054	1.19
300.422	1.17
300.789	1.16
301.157	1.15
301.525	1.05
301.892	1.06
302.26	1.12
302.627	1.17
302.994	1.16
303.362	1.22
303.729	1.25
304.097	1.2
304.464	1.16
304.831	1.12
305.198	1.16
305.565	1.16
305.932	1.16
306.299	1.08
306.666	1.18
307.033	1.22
307.4	1.24
307.767	1.24
308.134	1.25
308.501	1.16
308.867	1.11
309.234	1.1
309.601	1.11
309.967	1.05
310.334	1.01
310.701	1.03
311.067	1
311.433	1
311.8	1.02
312.166	1.01
312.533	0.99
312.899	1
313.265	1.04
313.631	1.05
313.997	0.95
314.363	0.91
314.729	0.89
315.096	0.85
315.461	0.85
315.827	0.78
316.193	0.73
316.559	0.69
316.925	0.81
317.291	0.78
317.656	0.77
318.022	0.84
318.388	0.81
318.753	0.85
319.119	0.94
319.484	0.92
319.85	0.9
320.215	0.96
320.581	0.93
320.946	0.92
321.311	0.97
321.676	0.98
322.042	0.89
322.407	0.83
322.772	0.78
323.137	0.84
323.502	0.82
323.867	0.81
324.232	0.75
324.597	0.79
324.962	0.87
325.327	0.91
325.691	0.93
326.056	0.9
326.421	0.92
326.785	0.92
327.15	0.9
327.514	0.86
327.879	0.82
328.243	0.78
328.608	0.87
328.972	0.92
329.337	0.84
329.701	0.78
330.065	0.76
330.429	0.69
330.794	0.69
331.158	0.81
331.522	0.94
331.886	1.02
332.25	1.01
332.614	0.98
332.978	0.95
333.342	1.02
333.705	1.02
334.069	0.98
334.433	1.01
334.797	1.01
335.16	0.97
335.524	0.92
335.887	0.86
336.251	0.85
336.614	0.9
336.978	0.94
337.341	0.89
337.705	0.83
338.068	0.83
338.431	0.78
338.794	0.79
339.158	0.75
339.521	0.7
339.884	0.66
340.247	0.51
340.61	0.44
340.973	0.34
341.336	0.36
341.699	0.45
342.062	0.42
342.424	0.39
342.787	0.39
343.15	0.39
343.512	0.43
343.875	0.46
344.238	0.47
344.6	0.46
344.963	0.62
345.325	0.61
345.688	0.59
346.05	0.58
346.412	0.63
346.775	0.69
347.137	0.61
347.499	0.7
347.861	0.69
348.223	0.67
348.585	0.77
348.947	0.68
349.309	0.73
349.671	0.67
350.033	0.79
350.395	0.74
350.757	0.72
351.118	0.82
351.48	0.92
351.842	0.86
352.203	0.83
352.565	0.76
352.927	0.76
353.288	0.69
353.65	0.64
354.011	0.52
354.372	0.54
354.734	0.52
355.095	0.54
355.456	0.53
355.817	0.47
356.179	0.51
356.54	0.41
356.901	0.4
357.262	0.41
357.623	0.41
357.984	0.59
358.345	0.64
358.705	0.69
359.066	0.63
359.427	0.69
359.788	0.65
360.148	0.67
360.509	0.61
360.87	0.63
361.23	0.62
361.591	0.67
361.951	0.79
362.312	0.98
362.672	1.11
363.032	1.13
363.393	1.15
363.753	1.17
364.113	1.16
364.473	1.26
364.833	1.22
365.193	1.26
365.553	1.35
365.913	1.32
366.273	1.27
366.633	1.23
366.993	1.2
367.353	1.1
367.713	1.01
368.072	1.08
368.432	1
368.792	1.04
369.151	1.03
369.511	1.02
369.87	0.99
370.23	1.04
370.589	1.02
370.949	0.84
371.308	0.72
371.667	0.74
372.027	0.75
372.386	0.79
372.745	0.86
373.104	0.82
373.463	0.75
373.822	0.8
374.181	0.77
374.54	0.77
374.899	0.83
375.258	0.89
375.617	0.95
375.975	1.09
376.334	1.21
376.693	1.37
377.052	1.36
377.41	1.47
377.769	1.49
378.127	1.54
378.486	1.61
378.844	1.8
379.202	1.85
379.561	1.83
379.919	1.88
380.277	1.99
380.636	2
380.994	2.13
381.352	2.19
381.71	2.22
382.068	2.27
382.426	2.34
382.784	2.51
383.142	2.62
383.5	2.7
383.857	2.85
384.215	2.95
384.573	3.13
384.931	3.13
385.288	3.24
385.646	3.42
386.003	3.56
386.361	3.65
386.718	3.84
387.076	3.95
387.433	4.03
387.791	4.07
388.148	4.33
388.505	4.62
388.862	4.87
389.22	5.11
389.577	5.32
389.934	5.54
390.291	5.81
390.648	6.1
391.005	6.52
391.362	6.88
391.718	7.09
392.075	7.32
392.432	7.75
392.789	8.07
393.145	8.43
393.502	8.88
393.859	9.27
394.215	9.64
394.572	9.95
394.928	10.31
395.285	10.75
395.641	11.11
395.997	11.56
396.354	12.05
396.71	12.71
397.066	13.01
397.422	13.52
397.778	14.06
398.134	14.59
398.491	15.06
398.846	15.52
399.202	16.05
399.558	16.62
399.914	17.02
400.27	17.56
400.626	18.15
400.981	18.82
401.337	19.38
401.693	19.97
402.048	20.67
402.404	21.1
402.759	21.8
403.115	22.42
403.47	23.11
403.826	23.95
404.181	24.66
404.536	25.39
404.892	26
405.247	26.69
405.602	27.27
405.957	27.98
406.312	28.6
406.667	29.15
407.022	29.88
407.377	30.73
407.732	31.51
408.087	32.18
408.442	32.8
408.796	33.5
409.151	34.13
409.506	34.91
409.86	35.5
410.215	36.22
410.57	36.88
410.924	37.5
411.279	38.18
411.633	38.75
411.987	39.56
412.342	40.16
412.696	40.58
413.05	41.13
413.404	41.67
413.758	42.3
414.113	42.92
414.467	43.42
414.821	44.11
415.175	44.77
415.529	45.34
415.882	45.81
416.236	46.09
416.59	46.49
416.944	47.01
417.298	47.56
417.651	47.95
418.005	48.44
418.358	48.84
418.712	49.35
419.065	49.71
419.419	50.09
419.772	50.37
420.126	50.77
420.479	50.98
420.832	51
421.185	51.21
421.539	51.44
421.892	51.69
422.245	52.08
422.598	52.32
422.951	52.61
423.304	52.73
423.657	52.94
424.01	53.21
424.363	53.41
424.715	53.66
425.068	54.09
425.421	54.41
425.773	54.48
426.126	54.6
426.479	54.92
426.831	55
427.184	55.06
427.536	55.18
427.889	55.29
428.241	55.47
428.593	55.65
428.945	55.93
429.298	56.21
429.65	56.39
430.002	56.6
430.354	56.82
430.706	56.97
431.058	56.97
431.41	57.25
431.762	57.34
432.114	57.62
432.466	57.73
432.817	57.85
433.169	58.05
433.521	58.29
433.872	58.44
434.224	58.61
434.576	58.85
434.927	59.07
435.279	59.14
435.63	59.3
435.981	59.54
436.333	59.76
436.684	59.86
437.035	60
437.387	59.96
437.738	59.92
438.089	60.06
438.44	60.13
438.791	60.13
439.142	60.31
439.493	60.52
439.844	60.62
440.195	60.65
440.545	60.73
440.896	60.77
441.247	60.81
441.598	60.84
441.948	60.86
442.299	60.78
442.649	60.69
443	60.66
443.35	60.65
443.701	60.66
444.051	60.7
444.401	60.77
444.752	60.76
445.102	60.71
445.452	60.67
445.802	60.78
446.152	61
446.502	61.14
446.852	61.12
447.202	61.24
447.552	61.41
447.902	61.42
448.252	61.36
448.602	61.93
448.952	62.01
449.301	62.05
449.651	62.18
450.001	62.25
450.35	62.34
450.7	62.38
451.049	62.31
451.399	62.53
451.748	62.43
452.097	62.55
452.447	62.56
452.796	62.57
453.145	62.69
453.494	62.79
453.843	62.65
454.193	62.77
454.542	62.73
454.891	62.66
455.239	62.46
455.588	62.34
455.937	62.39
456.286	62.32
456.635	62.2
456.984	62.27
457.332	61.66
457.681	61.73
458.03	61.59
458.378	61.44
458.727	61.59
459.075	61.23
459.423	61.43
459.772	61.35
460.12	61.37
460.468	61.54
460.817	61.33
461.165	61.23
461.513	61.22
461.861	61.18
462.209	60.88
462.557	61.04
462.905	61.08
463.253	60.89
463.601	60.8
463.949	60.83
464.297	60.8
464.644	60.56
464.992	60.46
465.34	60.64
465.687	60.66
466.035	60.6
466.383	60.46
466.73	60.54
467.078	60.49
467.425	60.21
467.772	60.35
468.12	60.18
468.467	60.23
468.814	60.25
469.161	60.16
469.508	60.08
469.856	60.19
470.203	60.18
470.55	60.13
470.897	60.14
471.243	60.12
471.59	59.92
471.937	59.95
472.284	60.11
472.631	59.97
472.977	59.91
473.324	60.05
473.671	59.98
474.017	59.64
474.364	59.45
474.71	59.27
475.057	59
475.403	58.79
475.749	58.73
476.096	58.67
476.442	58.58
476.788	58.4
477.134	58.32
477.48	58.09
477.826	57.9
478.172	57.8
478.518	57.72
478.864	57.65
479.21	57.42
479.556	57.3
479.902	57.18
480.248	57.1
480.593	56.82
480.939	56.65
481.285	56.57
481.63	56.6
481.976	56.48
482.321	56.5
482.667	56.52
483.012	56.51
483.357	56.56
483.703	56.48
484.048	56.49
484.393	56.38
484.738	56.33
485.084	56.26
485.429	56.25
485.774	56.25
486.119	56.21
486.464	56.17
486.808	56.18
487.153	55.91
487.498	55.82
487.843	55.75
488.188	55.72
488.532	55.61
488.877	55.55
489.222	55.58
489.566	55.5
489.911	55.45
490.255	55.36
490.6	55.31
490.944	55.13
491.288	55.06
491.633	54.88
491.977	54.64
492.321	54.55
492.665	54.31
493.009	54.18
493.353	54.06
493.697	53.94
494.041	53.74
494.385	53.53
494.729	53.26
495.073	53.16
495.417	53.09
495.76	53.06
496.104	52.9
496.448	52.77
496.791	52.56
497.135	52.35
497.479	52.29
497.822	52.1
498.165	51.94
498.509	51.77
498.852	51.49
499.196	51.38
499.539	51.32
499.882	51.14
500.225	50.99
500.568	50.8
500.911	50.78
501.254	50.76
501.597	50.85
501.94	50.72
502.283	50.63
502.626	50.65
502.969	50.49
503.312	50.47
503.654	50.42
503.997	50.18
504.34	50.18
504.682	50.09
505.025	49.98
505.367	49.93
505.71	49.79
506.052	49.48
506.395	49.51
506.737	49.37
507.079	49.27
507.421	49.25
507.764	49.07
508.106	48.87
508.448	48.82
508.79	48.71
509.132	48.77
509.474	48.58
509.816	48.42
510.158	48.11
510.499	48.04
510.841	47.9
511.183	47.72
511.525	47.61
511.866	47.46
512.208	47.25
512.549	47.24
512.891	46.98
513.232	46.83
513.574	46.78
513.915	46.72
514.256	46.7
514.598	46.76
514.939	46.47
515.28	46.27
515.621	46.15
515.962	45.97
516.303	45.95
516.644	45.85
516.985	45.69
517.326	45.52
517.667	45.4
518.008	45.28
518.349	45.28
518.69	45.39
519.03	45.11
519.371	45.03
519.712	44.88
520.052	44.79
520.393	44.7
520.733	44.56
521.074	44.32
521.414	44.21
521.754	44.08
522.095	43.96
522.435	43.87
522.775	43.77
523.115	43.67
523.455	43.55
523.795	43.58
524.135	43.46
524.475	43.39
524.815	43.17
525.155	43.22
525.495	43.07
525.835	43.08
526.175	42.96
526.514	42.85
526.854	42.63
527.194	42.37
527.533	42.37
527.873	42.18
528.212	42.11
528.552	42.18
528.891	42.16
529.23	42.01
529.57	42.05
529.909	41.96
530.248	41.85
530.587	41.78
530.927	41.61
531.266	41.51
531.605	41.31
531.944	41.36
532.283	41.3
532.621	41.26
532.96	41.2
533.299	41.18
533.638	41.1
533.977	40.97
534.315	40.88
534.654	40.87
534.992	40.83
535.331	40.77
535.67	40.67
536.008	40.61
536.346	40.5
536.685	40.38
537.023	40.12
537.361	39.97
537.7	39.85
538.038	39.73
538.376	39.61
538.714	39.59
539.052	39.41
539.39	39.36
539.728	39.31
540.066	39.19
540.404	39.13
540.741	38.99
541.079	38.89
541.417	38.88
541.755	38.74
542.092	38.63
542.43	38.72
542.767	38.44
543.105	38.32
543.442	38.31
543.78	38.26
544.117	38.04
544.454	37.9
544.792	37.95
545.129	37.87
545.466	37.73
545.803	37.72
546.14	37.88
546.477	37.78
546.814	37.75
547.151	37.6
547.488	37.63
547.825	37.48
548.162	37.34
548.499	37.45
548.835	37.48
549.172	37.47
549.509	37.35
549.845	37.26
550.182	37.18
550.518	37.12
550.855	37.11
551.191	37.27
551.528	37.2
551.864	37.15
552.2	37.07
552.537	37.21
552.873	37.28
553.209	37.24
553.545	37.14
553.881	37.27
554.217	37.27
554.553	37.11
554.889	37.18
555.225	37.17
555.561	37.37
555.896	37.37
556.232	37.47
556.568	37.65
556.903	37.53
557.239	37.5
557.575	37.66
557.91	37.72
558.245	37.69
558.581	37.88
558.916	37.8
559.252	37.68
559.587	37.69
559.922	37.8
560.257	37.84
560.592	37.97
560.928	37.93
561.263	38.04
561.598	38.22
561.933	38.35
562.267	38.44
562.602	38.36
562.937	38.48
563.272	38.59
563.607	38.52
563.941	38.37
564.276	38.25
564.611	38.3
564.945	38.23
565.28	38.2
565.614	38.16
565.949	38.1
566.283	38.18
566.617	38.31
566.951	38.33
567.286	38.4
567.62	38.37
567.954	38.47
568.288	38.57
568.622	38.53
568.956	38.59
569.29	38.69
569.624	38.67
569.958	38.71
570.292	38.76
570.626	38.84
570.959	38.89
571.293	38.86
571.627	38.85
571.96	39.09
572.294	39.2
572.627	39.39
572.961	39.49
573.294	39.51
573.627	39.67
573.961	39.74
574.294	39.74
574.627	39.75
574.961	39.71
575.294	39.7
575.627	39.65
575.96	39.76
576.293	39.74
576.626	39.76
576.959	39.91
577.292	39.96
577.624	39.96
577.957	40.04
578.29	40.04
578.623	40.07
578.955	40.08
579.288	40.13
579.62	40.32
579.953	40.37
580.285	40.34
580.618	40.39
580.95	40.4
581.282	40.41
581.615	40.54
581.947	40.57
582.279	40.61
582.611	40.79
582.943	40.94
583.275	41.06
583.607	41.19
583.939	41.35
584.271	41.51
584.603	41.6
584.935	41.58
585.267	41.56
585.598	41.58
585.93	41.75
586.262	41.86
586.593	41.97
586.925	42.08
587.256	42.13
587.588	42.25
587.919	42.22
588.25	42.27
588.582	42.28
588.913	42.32
589.244	42.42
589.575	42.59
589.907	42.67
590.238	42.86
590.569	42.94
590.9	42.94
591.231	42.88
591.562	42.92
591.892	43.05
592.223	43.13
592.554	43.18
592.885	43.3
593.215	43.45
593.546	43.61
593.877	43.69
594.207	43.69
594.538	43.72
594.868	43.83
595.198	43.95
595.529	43.96
595.859	44.1
596.189	44.22
596.52	44.42
596.85	44.59
597.18	44.73
597.51	44.86
597.84	44.82
598.17	44.94
598.5	45.1
598.83	45.3
599.16	45.51
599.489	45.64
599.819	45.84
600.149	45.99
600.479	46.33
600.808	46.46
601.138	46.65
601.467	46.87
601.797	47.11
602.126	47.3
602.456	47.62
602.785	47.9
603.114	48.06
603.443	48.25
603.773	48.73
604.102	49.01
604.431	49.37
604.76	49.6
605.089	49.93
605.418	50.17
605.747	50.35
606.076	50.57
606.405	50.73
606.733	50.85
607.062	51.2
607.391	51.17
607.72	51.55
608.048	51.89
608.377	52
608.705	52.02
609.034	52.28
609.362	52.53
609.69	52.78
610.019	53.1
610.347	53.29
610.675	53.37
611.004	53.35
611.332	53.65
611.66	53.94
611.988	53.77
612.316	53.68
612.644	53.7
612.972	53.87
613.3	53.97
613.627	54.27
613.955	54.51
614.283	54.82
614.611	54.97
614.938	55.07
615.266	55.09
615.593	55.59
615.921	55.8
616.248	55.81
616.576	56.34
616.903	56.98
617.23	57.25
617.558	57.91
617.885	58.12
618.212	58.32
618.539	58.86
618.866	59.12
619.193	59.56
619.52	59.67
619.847	59.98
620.174	60.44
620.501	60.98
620.828	61.02
621.155	61.44
621.481	61.49
621.808	61.67
622.135	62.12
622.461	62.43
622.788	62.4
623.114	62.77
623.441	62.72
623.767	62.7
624.093	62.89
624.42	63.65
624.746	64.03
625.072	63.82
625.398	63.95
625.725	63.69
626.051	64.08
626.377	64.32
626.703	64.48
627.029	64.75
627.354	64.74
627.68	64.74
628.006	65.06
628.332	65.36
628.658	65.63
628.983	66.32
629.309	66.09
629.634	66.67
629.96	66.76
630.285	66.42
630.611	66.38
630.936	67.04
631.262	67.18
631.587	67.76
631.912	68.07
632.237	68.58
632.562	68.35
632.887	67.93
633.213	68.45
633.538	69.02
633.863	69.63
634.187	69.34
634.512	68.88
634.837	69.1
635.162	68.99
635.487	68.88
635.811	69.03
636.136	68.95
636.461	69.36
636.785	69.39
637.11	69.68
637.434	69.69
637.758	69.84
638.083	69.67
638.407	69.8
638.731	69.67
639.056	69.73
639.38	69.4
639.704	69.69
640.028	69.67
640.352	69.61
640.676	69.21
641	69.45
641.324	69.15
641.648	68.87
641.972	68.52
642.295	69.24
642.619	69.61
642.943	69
643.266	69
643.59	69.52
643.913	69.57
644.237	69.05
644.56	68.48
644.884	68.3
645.207	67.81
645.53	68.01
645.854	67.86
646.177	67.65
646.5	68.38
646.823	68.66
647.146	68.54
647.469	69.28
647.792	69.41
648.115	69.3
648.438	69.19
648.761	70.77
649.084	71.81
649.406	72.24
649.729	71.48
650.052	71.49
650.374	71.26
650.697	71.2
651.019	71.24
651.342	71.4
651.664	71.48
651.987	71.48
652.309	71.78
652.631	71.89
652.953	72.09
653.276	72.04
653.598	72.3
653.92	72.25
654.242	72.48
654.564	72.31
654.886	72.38
655.208	72.54
655.53	72.19
655.851	72.01
656.173	72.18
656.495	72.51
656.816	72.06
657.138	71.54
657.46	71
657.781	72.76
658.103	73.11
658.424	74.07
658.746	74.3
659.067	74.76
659.388	74.58
659.709	74.62
660.031	74.6
660.352	74.13
660.673	74.42
660.994	73.76
661.315	74.17
661.636	72.48
661.957	72.55
662.278	72.69
662.599	72.62
662.919	72.48
663.24	71.69
663.561	72.26
663.881	71.85
664.202	72.37
664.523	71.05
664.843	70.62
665.164	69.96
665.484	70.25
665.804	69.43
666.125	69.95
666.445	69.81
666.765	70.45
667.085	71.08
667.405	70.9
667.726	70.71
668.046	71.04
668.366	71.38
668.686	71.71
669.005	71.51
669.325	71.64
669.645	71.83
669.965	72.22
670.285	71.02
670.604	71.45
670.924	70.59
671.243	71.25
671.563	71.43
671.882	71.51
672.202	70.9
672.521	71.47
672.841	72.07
673.16	72.5
673.479	72.4
673.798	72.42
674.117	72.15
674.437	71.59
674.756	71.76
675.075	71.64
675.394	71.8
675.713	72
676.031	72.25
676.35	72.29
676.669	71.79
676.988	72.05
677.306	71.7
677.625	72.27
677.944	71.89
678.262	72.45
678.581	72.25
678.899	73.74
679.218	74.42
679.536	74.38
679.854	74.92
680.172	75.34
680.491	75.17
680.809	75.65
681.127	75.58
681.445	75.42
681.763	75.95
682.081	75.86
682.399	76.58
682.717	75.28
683.035	75
683.352	75.06
683.67	75.33
683.988	75.65
684.306	75.73
684.623	75.43
684.941	76.13
685.258	76.18
685.576	76.23
685.893	77.04
686.211	78.35
686.528	79.9
686.845	79.5
687.162	78.37
687.48	78.32
687.797	78.85
688.114	78.74
688.431	78.57
688.748	77.6
689.065	77.58
689.382	77.2
689.699	77.47
690.015	77.46
690.332	77.7
690.649	78.95
690.966	78.72
691.282	79.4
691.599	78.75
691.915	78.46
692.232	78.49
692.548	78.93
692.865	79.44
693.181	80.87
693.497	81.48
693.813	79.76
694.13	78.6
694.446	77.48
694.762	76.62
695.078	77.56
695.394	78.42
695.71	77.31
696.026	77.18
696.342	77.78
696.658	77.81
696.973	77.26
697.289	78.28
697.605	77.84
697.92	78.25
698.236	77.71
698.551	76.99
698.867	77.9
699.182	78.09
699.498	78.51
699.813	77.91
700.128	76.36
700.444	75.8
700.759	73.4
701.074	72.43
701.389	71.63
701.704	72.64
702.019	71.95
702.334	71.39
702.649	72.69
702.964	72.74
703.279	73.08
703.594	73.06
703.908	73.02
704.223	72.61
704.538	73.16
704.852	74.53
705.167	73.97
705.481	73.14
705.796	72.58
706.11	73.47
706.425	73.21
706.739	71.63
707.053	71.06
707.368	72.05
707.682	72.08
707.996	72.46
708.31	72.93
708.624	73.65
708.938	73.35
709.252	74.26
709.566	74.31
709.88	75.59
710.193	76.36
710.507	76.21
710.821	75.1
711.135	73.77
711.448	75.23
711.762	76.33
712.075	76.76
712.389	76.27
712.702	75.28
713.015	76.97
713.329	77.52
713.642	76.82
713.955	75.73
714.269	76.55
714.582	77.54
714.895	77.5
715.208	77.23
715.521	76.71
715.834	77.77
716.147	76.79
716.459	77.47
716.772	76.7
717.085	75.63
717.398	75.71
717.71	75.07
718.023	74.18
718.336	73.97
718.648	74.42
718.961	75.03
719.273	74.46
719.585	73.57
719.898	73.31
720.21	75.39
720.522	76.71
720.834	71.44
721.147	71.59
721.459	74.41
721.771	75.28
722.083	74.04
722.395	74.82
722.707	73.6
723.019	73.69
723.33	76.02
723.642	76.43
723.954	76.7
724.265	77.42
724.577	78.12
724.889	78.38
725.2	78.3
725.512	78.94
725.823	79.95
726.135	79.67
726.446	80.14
726.757	78.7
727.068	77.57
727.38	76.81
727.691	75.7
728.002	74.14
728.313	74.01
728.624	76.37
728.935	76.08
729.246	75.46
729.557	74.43
729.867	75.83
730.178	75.07
730.489	75.67
730.8	75.28
731.11	74.06
731.421	73.2
731.731	75.23
732.042	74.32
732.352	75.02
732.663	74.37
732.973	74.73
733.283	74.81
733.594	74.33
733.904	75.13
734.214	74.67
734.524	76.63
734.834	76.97
735.144	78.62
735.454	80.4
735.764	81.64
736.074	80.69
736.384	80.44
736.694	81.17
737.003	82.11
737.313	84.17
737.623	82.78
737.932	82.69
738.242	82.53
738.551	82.53
738.861	80.9
739.17	80.46
739.479	77.17
739.789	78.68
740.098	76.33
740.407	77.68
740.716	80.52
741.025	76.99
741.334	76.97
741.643	75.09
741.952	77.42
742.261	74.69
742.57	73.73
742.879	69.68
743.188	68.62
743.497	66.7
743.805	67.98
744.114	70.17
744.422	71.14
744.731	67.7
745.04	66.19
745.348	66.91
745.656	69.98
745.965	70.88
746.273	71.58
746.581	75
746.889	73.53
747.198	73.85
747.506	72.18
747.814	73.65
748.122	72.01
748.43	65.89
748.738	67.22
749.046	65.12
749.353	64.3
749.661	64.08
749.969	65.35
750.277	65.49
750.584	65.96
750.892	67.25
751.199	68.03
751.507	67.64
751.814	66.85
752.122	65.5
752.429	66.93
752.736	68.25
753.044	69.73
753.351	70.01
753.658	69.86
753.965	67.77
754.272	67.61
754.579	69.01
754.886	70.52
755.193	70.77
755.5	72.31
755.807	72.28
756.114	73.07
756.42	74.19
756.727	76.09
757.034	77.61
757.34	76.09
757.647	76.64
757.953	79.9
758.26	79.82
758.566	78.01
758.872	77.75
759.179	81.34
759.485	82.95
759.791	83.63
760.097	82.17
760.403	83.03
760.709	83.27
761.015	79.66
761.321	80.96
761.627	82.04
761.933	81.69
762.239	82.94
762.545	81.37
762.851	81.61
763.156	81.2
763.462	85.1
763.767	86.95
764.073	85.59
764.378	83.83
764.684	85.15
764.989	88.72
765.295	87.85
765.6	83.5
765.905	86.95
766.21	89.24
766.515	87.08
766.821	84.66
767.126	81.86
767.431	81.58
767.736	88.78
768.041	81.83
768.345	82.14
768.65	85.18
768.955	88.55
769.26	89.55
769.564	88.1
769.869	83.51
770.174	86.97
770.478	87.23
770.783	86.52
771.087	86.05
771.391	87.13
771.696	88.83
772	92.57
772.304	96.16
772.608	95.47
772.913	100.6
773.217	103.33
773.521	102.31
773.825	100.28
774.129	102.26
774.433	100.49
774.736	97.17
775.04	100.81
775.344	91.39
775.648	91.91
775.951	90.05
776.255	90.6
776.559	85.67
776.862	87.02
777.166	91.95
777.469	93.52
777.772	99.95
778.076	95.86
778.379	91.8
778.682	91.29
778.985	89.46
779.289	88.62
779.592	86.62
779.895	79.95
780.198	79.14
780.501	73.06
780.804	69.85
781.106	67.72
781.409	70.52
781.712	72
782.015	70.68
782.317	76.68
782.62	72.45
782.923	78.66
783.225	79.72
783.527	77.05
783.83	81.68
784.132	84.93
784.435	86.98
784.737	84.5
785.039	81.03
785.341	66.64
785.643	65.54
785.945	72.91
786.248	68.13
786.55	72.88
786.851	75.19
787.153	77.57
787.455	80.41
787.757	78.46
788.059	83.04
788.36	86.32
788.662	88.4
788.964	82.09
789.265	78.09
789.567	77.98
789.868	69.58
790.17	68.52
790.471	66.96
790.772	66.95
791.074	68.41
791.375	61.65
791.676	57.11
791.977	52.15
792.278	53.2
792.579	56.48
792.88	58.71
793.181	64.47
793.482	55.82
793.783	61.73
794.083	60.53
794.384	51.44
794.685	48.45
794.986	47.28
795.286	48.02
795.587	43.06
795.887	40.89
796.188	38.75
796.488	39.37
796.788	40.49
797.089	41.17
797.389	46.13
797.689	42.93
797.989	41.44
798.289	41.86
798.589	40.85
798.889	37.84
799.189	43.25
799.489	41.58
799.789	33.66
800.089	32.63
800.389	35.76
800.688	31.74
800.988	35.66
801.288	28.67
801.587	14.66
801.887	36.31
802.186	30.04
802.486	24.74
802.785	20.45
803.085	36.79
803.384	52.5
803.683	73.16
803.982	76.62
804.281	69.89
804.58	84.61
804.879	98.35
805.178	151.66
805.477	297.99
805.776	235.36
806.075	250.42
806.374	295.55
806.673	156.13
806.971	191
807.27	212.06
807.569	296.96
807.867	432.99
808.166	575.58
808.464	636.97
808.763	440.85
809.061	350.05
809.359	313.79
809.658	230.88
809.956	388.51
810.254	253.13
810.552	307.73
810.85	307.74
811.148	276.37
811.446	155.19
811.744	179.92
812.042	130.52
812.34	103.97
812.638	111.31
812.935	138.28
813.233	122.17
813.531	118.86
813.828	134.51
814.126	150.13
814.423	133.3
814.721	220.79
815.018	183.9
815.316	179.64
815.613	187.11
815.91	203.96
816.207	179.21
816.504	163.74
816.802	190.45
817.099	282.77
817.396	232.34
817.693	193.58
817.99	179.12
818.286	254.44
818.583	208.79
818.88	237.25
819.177	199.54
819.473	185.16
819.77	156.58
820.067	112.97
820.363	63.65
820.66	42.1
820.956	47.18
821.252	24.69
821.549	30.76
821.845	25.19
822.141	26.7
822.437	3.71
822.734	5.99
823.03	8.16
823.326	-7.79
823.622	-10.31
823.918	-25.11
824.213	-3.05
824.509	-1.02
824.805	-5.06
825.101	9.11
825.397	6.75
825.692	18.6
825.988	40.35
826.283	26.85
826.579	43.97
826.874	39.03
827.17	30.84
827.465	43.39
827.76	65.1
828.056	156.87
828.351	89.44
828.646	77.22
828.941	95.14
829.236	142.78
829.531	86.35
829.826	96.62
830.121	66.27
830.416	91.04
830.711	103.33
831.006	89.34
831.3	92.24
831.595	81.11
831.89	67.05
832.184	60.92
832.479	55.04
832.773	54.34
833.068	40.28
833.362	23.46
833.656	13.19
833.951	-5.78
834.245	-13.25
834.539	-23.42
834.833	-33.35
835.127	3.95
835.421	-16.66
835.715	-5.98
836.009	-10.58
836.303	-3.86
836.597	-9.03
836.891	-5.92
837.185	-40.33
837.478	-146.77
837.772	-96.46
838.066	-138.06
838.359	-145.62
838.653	-48.76
838.946	-9.36
839.24	39.64
839.533	72.51
839.826	76.79
840.119	103.57
840.413	103.02
840.706	105.87
840.999	117.41
841.292	96.5
841.585	90.43
841.878	90.67
842.171	76.51
842.464	76.31
842.757	103.4
843.049	114.84
843.342	99.76
843.635	86.17
843.927	93.41
844.22	101.98
844.513	101.52
844.805	101.38
845.098	109.95
845.39	114.05
845.682	90.2
845.975	71.4
846.267	69.11
846.559	63.66
846.851	54.9
847.143	58.42
847.435	76.6
847.727	106.54
848.019	118.1
848.311	78.01
848.603	83.44
848.895	100.87
849.186	104.6
849.478	107.81
849.77	94.24
850.061	80.67
850.353	85.8
850.645	86.48
850.936	78.5
851.227	79.23
851.519	75.93
851.81	75.31
852.101	66.71
852.393	67.2
852.684	63.13
852.975	64.62
853.266	73.33
853.557	65.39
853.848	67.88
854.139	64.57
854.43	53.07
854.72	32.95
855.011	33.17
855.302	34.6
855.593	50.37
855.883	53.97
856.174	57.04
856.464	51.37
856.755	58.86
857.045	62.01
857.336	62.74
857.626	49.78
857.916	58.93
858.206	99.08
858.497	152.9
858.787	128.32
859.077	129.73
859.367	86.6
859.657	71.71
859.947	75.39
860.237	104.63
860.527	85.3
860.816	86.81
861.106	90.73
861.396	68.22
861.685	74.87
861.975	71.97
862.265	60.2
862.554	67.53
862.844	70.05
863.133	52.79
863.422	32.93
863.712	6.44
864.001	-9.76
864.29	-32.48
864.579	-34.39
864.868	-27.31
865.157	-36.77
865.446	-32.94
865.735	-41.72
866.024	-47.5
866.313	-40.13
866.602	-23.5
866.891	-40.06
867.179	-70.69
867.468	-56.66
