Data from T2_Reflection__47__00-51-52-928.txt Node

Date: Fri Jun 04 00:51:52 CEST 2021
User: mabdelazizm
Spectrometer: FLMS18565
Trigger mode: 0
Integration Time (sec): 2.000000E0
Scans to average: 1
Electric dark correction enabled: true
Nonlinearity correction enabled: false
Boxcar width: 12
XAxis mode: Wavelengths
Number of Pixels in Spectrum: 2048
>>>>>Begin Spectral Data<<<<<
179.071	-503.14
179.452	-350.21
179.833	-282.24
180.214	-5300
180.595	-215.36
180.977	-332.02
181.358	-4208.16
181.739	1436.36
182.12	316.27
182.501	243.74
182.882	208.67
183.262	190.53
183.643	141.18
184.024	111.43
184.405	79.46
184.786	74.74
185.166	69.53
185.547	52.91
185.927	50.06
186.308	57.29
186.689	60.98
187.069	55.86
187.449	55.25
187.83	50.56
188.21	51.05
188.59	54.27
188.971	51.97
189.351	56.43
189.731	53.46
190.111	54.63
190.491	56.49
190.871	50.69
191.251	54.37
191.631	58.07
192.011	54.32
192.391	49.97
192.771	53.03
193.151	49.39
193.531	49.02
193.91	50.11
194.29	53.95
194.67	56.75
195.049	56.38
195.429	59.02
195.808	56.56
196.188	52.48
196.567	50.58
196.946	52.03
197.326	51.21
197.705	47.96
198.084	44.52
198.464	42.61
198.843	37.39
199.222	42.81
199.601	39.84
199.98	40.37
200.359	42.65
200.738	45.22
201.117	42.61
201.496	42.49
201.875	42.96
202.254	37.76
202.632	37.26
203.011	38.34
203.39	35.96
203.768	31.61
204.147	26.62
204.525	23.22
204.904	21.65
205.282	18.74
205.661	17.97
206.039	17.81
206.418	16.57
206.796	16.6
207.174	19.04
207.552	20.99
207.931	16.78
208.309	18.92
208.687	15.26
209.065	16.01
209.443	16.24
209.821	14.66
210.199	12.6
210.577	12.5
210.954	12.52
211.332	12.9
211.71	13.96
212.088	14.9
212.465	14.04
212.843	14.75
213.221	15.08
213.598	15.78
213.976	16.7
214.353	18.47
214.731	21.43
215.108	21.86
215.485	21.31
215.863	17.84
216.24	17.63
216.617	17.19
216.994	18.21
217.371	20.32
217.749	19.9
218.126	19.25
218.503	18.74
218.88	17.63
219.256	17.04
219.633	14.86
220.01	13.59
220.387	13.39
220.764	12.81
221.14	12.89
221.517	13.17
221.894	13.89
222.27	13.98
222.647	13.58
223.023	13.11
223.4	13.15
223.776	10.11
224.153	9.22
224.529	8.94
224.905	8.59
225.282	10.11
225.658	10.24
226.034	10.06
226.41	9.59
226.786	9
227.162	8.85
227.538	8.27
227.914	7.82
228.29	7.26
228.666	7.1
229.042	6.7
229.418	6.92
229.793	6.94
230.169	6.51
230.545	6.07
230.92	5.81
231.296	5.43
231.672	5.05
232.047	4.72
232.422	4.72
232.798	4.27
233.173	4.63
233.549	4.82
233.924	4.98
234.299	5.26
234.674	5.16
235.05	4.94
235.425	4.68
235.8	4.33
236.175	4.41
236.55	4.33
236.925	4.48
237.3	4.3
237.675	4.29
238.049	4.29
238.424	4.62
238.799	4.47
239.174	4.42
239.548	4.51
239.923	4.35
240.297	4.27
240.672	4.21
241.046	4.18
241.421	4.12
241.795	4.11
242.17	4.22
242.544	4.05
242.918	4
243.293	3.81
243.667	3.75
244.041	3.67
244.415	3.68
244.789	3.69
245.163	3.8
245.537	3.7
245.911	3.69
246.285	3.65
246.659	3.62
247.033	3.55
247.406	3.48
247.78	3.34
248.154	3.32
248.528	3.32
248.901	3.3
249.275	3.37
249.648	3.45
250.022	3.46
250.395	3.43
250.769	3.54
251.142	3.52
251.515	3.5
251.888	3.61
252.262	3.58
252.635	3.62
253.008	3.6
253.381	3.5
253.754	3.39
254.127	3.41
254.5	3.32
254.873	3.3
255.246	3.27
255.619	3.26
255.992	3.33
256.364	3.32
256.737	3.28
257.11	3.25
257.483	3.13
257.855	3.09
258.228	3.09
258.6	3.16
258.973	3.09
259.345	3.04
259.718	3.02
260.09	2.94
260.462	2.84
260.834	2.85
261.207	2.84
261.579	2.86
261.951	2.85
262.323	2.74
262.695	2.77
263.067	2.89
263.439	2.89
263.811	2.95
264.183	2.97
264.555	2.94
264.927	2.91
265.298	2.94
265.67	2.96
266.042	2.97
266.413	2.94
266.785	3.02
267.156	3.05
267.528	3.06
267.899	2.97
268.271	2.92
268.642	2.91
269.013	2.98
269.385	2.95
269.756	2.96
270.127	2.93
270.498	2.89
270.87	2.82
271.241	2.77
271.612	2.74
271.983	2.68
272.354	2.57
272.724	2.49
273.095	2.56
273.466	2.51
273.837	2.48
274.208	2.5
274.578	2.41
274.949	2.32
275.32	2.36
275.69	2.38
276.061	2.41
276.431	2.39
276.802	2.33
277.172	2.4
277.542	2.37
277.913	2.37
278.283	2.38
278.653	2.44
279.023	2.42
279.394	2.41
279.764	2.35
280.134	2.39
280.504	2.42
280.874	2.5
281.244	2.55
281.614	2.56
281.983	2.54
282.353	2.41
282.723	2.41
283.093	2.37
283.462	2.34
283.832	2.33
284.202	2.38
284.571	2.29
284.941	2.35
285.31	2.41
285.68	2.4
286.049	2.39
286.418	2.28
286.788	2.35
287.157	2.3
287.526	2.26
287.895	2.18
288.264	2.18
288.633	2.15
289.002	2.18
289.371	2.06
289.74	2.01
290.109	2.01
290.478	2.02
290.847	2.03
291.216	2.05
291.585	2.01
291.953	2.04
292.322	2.13
292.691	2.11
293.059	2.12
293.428	2.1
293.796	2.1
294.165	2.03
294.533	1.89
294.901	1.87
295.27	1.82
295.638	1.9
296.006	1.89
296.374	1.94
296.743	1.94
297.111	2.02
297.479	1.99
297.847	1.95
298.215	1.97
298.583	1.96
298.95	1.97
299.318	1.96
299.686	1.92
300.054	1.87
300.422	1.87
300.789	1.91
301.157	1.87
301.525	1.85
301.892	1.88
302.26	1.9
302.627	1.95
302.994	1.96
303.362	1.92
303.729	1.97
304.097	1.93
304.464	1.99
304.831	1.93
305.198	1.87
305.565	1.77
305.932	1.7
306.299	1.64
306.666	1.72
307.033	1.73
307.4	1.74
307.767	1.73
308.134	1.74
308.501	1.67
308.867	1.59
309.234	1.62
309.601	1.61
309.967	1.59
310.334	1.56
310.701	1.53
311.067	1.48
311.433	1.53
311.8	1.49
312.166	1.43
312.533	1.43
312.899	1.47
313.265	1.47
313.631	1.47
313.997	1.42
314.363	1.45
314.729	1.51
315.096	1.59
315.461	1.57
315.827	1.56
316.193	1.58
316.559	1.5
316.925	1.59
317.291	1.56
317.656	1.65
318.022	1.72
318.388	1.59
318.753	1.61
319.119	1.64
319.484	1.68
319.85	1.63
320.215	1.67
320.581	1.63
320.946	1.65
321.311	1.68
321.676	1.67
322.042	1.66
322.407	1.58
322.772	1.47
323.137	1.54
323.502	1.51
323.867	1.55
324.232	1.49
324.597	1.49
324.962	1.49
325.327	1.47
325.691	1.58
326.056	1.53
326.421	1.51
326.785	1.48
327.15	1.46
327.514	1.61
327.879	1.63
328.243	1.64
328.608	1.7
328.972	1.78
329.337	1.62
329.701	1.59
330.065	1.65
330.429	1.76
330.794	1.8
331.158	1.84
331.522	1.93
331.886	1.97
332.25	2
332.614	2.01
332.978	1.93
333.342	1.97
333.705	1.95
334.069	1.95
334.433	1.95
334.797	1.92
335.16	1.94
335.524	1.96
335.887	1.87
336.251	1.83
336.614	1.81
336.978	1.77
337.341	1.73
337.705	1.64
338.068	1.68
338.431	1.78
338.794	1.69
339.158	1.62
339.521	1.58
339.884	1.53
340.247	1.38
340.61	1.38
340.973	1.33
341.336	1.32
341.699	1.32
342.062	1.28
342.424	1.22
342.787	1.17
343.15	1.09
343.512	1.19
343.875	1.15
344.238	1.1
344.6	1.1
344.963	1.16
345.325	1.17
345.688	1.17
346.05	1.18
346.412	1.2
346.775	1.25
347.137	1.2
347.499	1.24
347.861	1.35
348.223	1.34
348.585	1.35
348.947	1.36
349.309	1.36
349.671	1.31
350.033	1.39
350.395	1.27
350.757	1.29
351.118	1.29
351.48	1.32
351.842	1.32
352.203	1.36
352.565	1.17
352.927	1.23
353.288	1.34
353.65	1.34
354.011	1.31
354.372	1.3
354.734	1.33
355.095	1.37
355.456	1.38
355.817	1.34
356.179	1.38
356.54	1.29
356.901	1.27
357.262	1.32
357.623	1.23
357.984	1.29
358.345	1.39
358.705	1.43
359.066	1.41
359.427	1.52
359.788	1.56
360.148	1.65
360.509	1.62
360.87	1.64
361.23	1.69
361.591	1.72
361.951	1.81
362.312	1.77
362.672	1.82
363.032	1.84
363.393	1.79
363.753	1.79
364.113	1.73
364.473	1.79
364.833	1.72
365.193	1.66
365.553	1.74
365.913	1.72
366.273	1.65
366.633	1.64
366.993	1.59
367.353	1.5
367.713	1.5
368.072	1.54
368.432	1.41
368.792	1.39
369.151	1.31
369.511	1.27
369.87	1.31
370.23	1.25
370.589	1.33
370.949	1.19
371.308	1.22
371.667	1.17
372.027	1.13
372.386	1.2
372.745	1.19
373.104	1.18
373.463	1.13
373.822	1.23
374.181	1.22
374.54	1.12
374.899	1.17
375.258	1.16
375.617	1.27
375.975	1.34
376.334	1.41
376.693	1.47
377.052	1.48
377.41	1.63
377.769	1.58
378.127	1.68
378.486	1.79
378.844	1.91
379.202	1.97
379.561	1.84
379.919	1.75
380.277	1.7
380.636	1.76
380.994	1.83
381.352	1.85
381.71	1.82
382.068	1.84
382.426	1.76
382.784	1.84
383.142	1.83
383.5	1.86
383.857	1.9
384.215	1.9
384.573	1.85
384.931	1.8
385.288	1.83
385.646	1.84
386.003	1.84
386.361	1.73
386.718	1.77
387.076	1.65
387.433	1.56
387.791	1.39
388.148	1.32
388.505	1.41
388.862	1.47
389.22	1.45
389.577	1.44
389.934	1.43
390.291	1.48
390.648	1.52
391.005	1.61
391.362	1.74
391.718	1.67
392.075	1.68
392.432	1.77
392.789	1.75
393.145	1.77
393.502	1.81
393.859	1.83
394.215	1.73
394.572	1.73
394.928	1.73
395.285	1.8
395.641	1.8
395.997	1.91
396.354	2.05
396.71	2.18
397.066	2.18
397.422	2.36
397.778	2.58
398.134	2.7
398.491	2.69
398.846	2.78
399.202	2.92
399.558	3.07
399.914	3.06
400.27	3.08
400.626	3.27
400.981	3.41
401.337	3.61
401.693	3.82
402.048	4.02
402.404	4.16
402.759	4.36
403.115	4.58
403.47	4.83
403.826	5.1
404.181	5.32
404.536	5.52
404.892	5.7
405.247	5.95
405.602	6.19
405.957	6.52
406.312	6.65
406.667	6.79
407.022	7.1
407.377	7.46
407.732	7.83
408.087	8.1
408.442	8.42
408.796	8.83
409.151	9.2
409.506	9.53
409.86	9.86
410.215	10.24
410.57	10.66
410.924	11.07
411.279	11.4
411.633	11.86
411.987	12.39
412.342	12.78
412.696	13.13
413.05	13.58
413.404	14.1
413.758	14.62
414.113	15.05
414.467	15.48
414.821	15.99
415.175	16.58
415.529	17.13
415.882	17.55
416.236	18.14
416.59	18.52
416.944	18.99
417.298	19.48
417.651	19.89
418.005	20.48
418.358	21
418.712	21.55
419.065	21.89
419.419	22.25
419.772	22.67
420.126	23.28
420.479	23.7
420.832	24.09
421.185	24.56
421.539	24.89
421.892	25.28
422.245	25.74
422.598	26.08
422.951	26.48
423.304	26.84
423.657	27.28
424.01	27.64
424.363	28.16
424.715	28.65
425.068	29.05
425.421	29.44
425.773	29.85
426.126	30.2
426.479	30.66
426.831	30.93
427.184	31.07
427.536	31.46
427.889	31.9
428.241	32.12
428.593	32.5
428.945	32.88
429.298	33.22
429.65	33.58
430.002	33.87
430.354	34.41
430.706	34.73
431.058	34.93
431.41	35.31
431.762	35.66
432.114	35.92
432.466	36.01
432.817	36.32
433.169	36.41
433.521	36.67
433.872	36.89
434.224	37.2
434.576	37.37
434.927	37.65
435.279	37.77
435.63	37.96
435.981	38.49
436.333	38.57
436.684	38.83
437.035	39.04
437.387	39.06
437.738	39.04
438.089	39.16
438.44	39.28
438.791	39.38
439.142	39.34
439.493	39.49
439.844	39.56
440.195	39.65
440.545	39.69
440.896	39.85
441.247	40.05
441.598	40.02
441.948	40.1
442.299	40.31
442.649	40.45
443	40.62
443.35	40.76
443.701	40.76
444.051	40.86
444.401	40.99
444.752	40.89
445.102	41.02
445.452	40.9
445.802	41
446.152	41.34
446.502	41.49
446.852	41.45
447.202	41.49
447.552	41.5
447.902	41.68
448.252	41.7
448.602	42.17
448.952	42.19
449.301	42.28
449.651	42.39
450.001	42.48
450.35	42.75
450.7	42.78
451.049	42.62
451.399	42.51
451.748	42.38
452.097	42.39
452.447	42.4
452.796	42.45
453.145	42.48
453.494	42.63
453.843	42.6
454.193	42.62
454.542	42.74
454.891	42.48
455.239	42.38
455.588	42.39
455.937	42.28
456.286	42.27
456.635	42.18
456.984	42.1
457.332	41.71
457.681	41.69
458.03	41.48
458.378	41.43
458.727	41.46
459.075	41.17
459.423	41.3
459.772	41.17
460.12	41.09
460.468	40.91
460.817	40.83
461.165	40.65
461.513	40.58
461.861	40.53
462.209	40.25
462.557	40.12
462.905	40.13
463.253	39.97
463.601	40
463.949	39.91
464.297	39.71
464.644	39.55
464.992	39.36
465.34	39.25
465.687	39.43
466.035	39.29
466.383	39.27
466.73	39.34
467.078	39.09
467.425	38.8
467.772	38.81
468.12	38.57
468.467	38.51
468.814	38.54
469.161	38.56
469.508	38.41
469.856	38.35
470.203	38.08
470.55	37.93
470.897	37.82
471.243	37.8
471.59	37.49
471.937	37.24
472.284	36.98
472.631	36.8
472.977	36.77
473.324	36.81
473.671	36.69
474.017	36.42
474.364	36.1
474.71	35.83
475.057	35.53
475.403	35.47
475.749	35.34
476.096	35.24
476.442	35.05
476.788	34.8
477.134	34.62
477.48	34.31
477.826	34.09
478.172	33.92
478.518	33.83
478.864	33.71
479.21	33.46
479.556	33.24
479.902	33.01
480.248	32.82
480.593	32.65
480.939	32.51
481.285	32.41
481.63	32.28
481.976	32.05
482.321	31.95
482.667	31.9
483.012	31.77
483.357	31.7
483.703	31.58
484.048	31.39
484.393	31.22
484.738	31.12
485.084	30.9
485.429	30.81
485.774	30.71
486.119	30.72
486.464	30.63
486.808	30.44
487.153	30.15
487.498	30.01
487.843	29.89
488.188	29.75
488.532	29.61
488.877	29.43
489.222	29.31
489.566	29.11
489.911	28.92
490.255	28.78
490.6	28.63
490.944	28.42
491.288	28.22
491.633	28.08
491.977	27.82
492.321	27.66
492.665	27.37
493.009	27.16
493.353	26.94
493.697	26.89
494.041	26.68
494.385	26.5
494.729	26.21
495.073	25.96
495.417	25.81
495.76	25.71
496.104	25.52
496.448	25.31
496.791	25.17
497.135	24.95
497.479	24.88
497.822	24.76
498.165	24.66
498.509	24.48
498.852	24.2
499.196	24.05
499.539	23.86
499.882	23.71
500.225	23.55
500.568	23.47
500.911	23.33
501.254	23.25
501.597	23.22
501.94	23.02
502.283	22.83
502.626	22.78
502.969	22.65
503.312	22.45
503.654	22.34
503.997	22.25
504.34	22.19
504.682	22.13
505.025	22.03
505.367	21.89
505.71	21.67
506.052	21.47
506.395	21.29
506.737	21.15
507.079	20.99
507.421	20.96
507.764	20.75
508.106	20.64
508.448	20.45
508.79	20.3
509.132	20.17
509.474	20.08
509.816	19.89
510.158	19.73
510.499	19.71
510.841	19.59
511.183	19.47
511.525	19.35
511.866	19.33
512.208	19.23
512.549	19.12
512.891	18.98
513.232	18.83
513.574	18.69
513.915	18.43
514.256	18.42
514.598	18.35
514.939	18.29
515.28	18.09
515.621	17.95
515.962	17.75
516.303	17.72
516.644	17.76
516.985	17.71
517.326	17.56
517.667	17.4
518.008	17.21
518.349	17.17
518.69	17.2
519.03	16.98
519.371	16.91
519.712	16.76
520.052	16.68
520.393	16.58
520.733	16.48
521.074	16.34
521.414	16.18
521.754	16.02
522.095	15.88
522.435	15.93
522.775	15.87
523.115	15.89
523.455	15.74
523.795	15.79
524.135	15.77
524.475	15.76
524.815	15.53
525.155	15.35
525.495	15.27
525.835	15.2
526.175	15.21
526.514	15.21
526.854	15.16
527.194	14.85
527.533	14.8
527.873	14.72
528.212	14.56
528.552	14.56
528.891	14.48
529.23	14.41
529.57	14.41
529.909	14.31
530.248	14.35
530.587	14.39
530.927	14.33
531.266	14.23
531.605	14.03
531.944	13.95
532.283	13.77
532.621	13.68
532.96	13.63
533.299	13.72
533.638	13.56
533.977	13.57
534.315	13.61
534.654	13.46
534.992	13.36
535.331	13.23
535.67	13.21
536.008	13.21
536.346	12.99
536.685	12.88
537.023	12.73
537.361	12.6
537.7	12.61
538.038	12.5
538.376	12.51
538.714	12.4
539.052	12.27
539.39	12.23
539.728	12.11
540.066	12.03
540.404	12.01
540.741	12.03
541.079	12.05
541.417	11.99
541.755	11.93
542.092	11.88
542.43	11.8
542.767	11.64
543.105	11.73
543.442	11.63
543.78	11.65
544.117	11.59
544.454	11.48
544.792	11.55
545.129	11.72
545.466	11.66
545.803	11.75
546.14	11.67
546.477	11.54
546.814	11.48
547.151	11.4
547.488	11.41
547.825	11.32
548.162	11.49
548.499	11.53
548.835	11.52
549.172	11.43
549.509	11.26
549.845	11.1
550.182	11.03
550.518	11.04
550.855	11.05
551.191	11.09
551.528	10.89
551.864	11.06
552.2	11.04
552.537	11.03
552.873	11.02
553.209	11.09
553.545	10.9
553.881	11.03
554.217	11
554.553	10.97
554.889	11.04
555.225	11.15
555.561	11.21
555.896	11.12
556.232	11.15
556.568	11.14
556.903	11.08
557.239	11.21
557.575	11.36
557.91	11.5
558.245	11.6
558.581	11.8
558.916	11.88
559.252	11.91
559.587	11.86
559.922	11.99
560.257	11.87
560.592	11.93
560.928	11.98
561.263	12.09
561.598	12.05
561.933	12.02
562.267	12.12
562.602	12.18
562.937	12.19
563.272	12.26
563.607	12.05
563.941	12.09
564.276	12.17
564.611	12.12
564.945	12.07
565.28	12.16
565.614	12.21
565.949	12.16
566.283	12.31
566.617	12.36
566.951	12.29
567.286	12.41
567.62	12.31
567.954	12.29
568.288	12.36
568.622	12.47
568.956	12.36
569.29	12.43
569.624	12.4
569.958	12.44
570.292	12.58
570.626	12.5
570.959	12.42
571.293	12.49
571.627	12.57
571.96	12.75
572.294	12.85
572.627	12.97
572.961	13.12
573.294	13.29
573.627	13.36
573.961	13.28
574.294	13.24
574.627	13.21
574.961	13.18
575.294	13.14
575.627	13.07
575.96	13.11
576.293	13.15
576.626	13.18
576.959	13.23
577.292	13.38
577.624	13.42
577.957	13.43
578.29	13.43
578.623	13.47
578.955	13.59
579.288	13.66
579.62	13.73
579.953	13.75
580.285	13.79
580.618	13.83
580.95	13.77
581.282	13.7
581.615	13.63
581.947	13.69
582.279	13.78
582.611	13.92
582.943	13.93
583.275	14.07
583.607	14.18
583.939	14.28
584.271	14.44
584.603	14.63
584.935	14.61
585.267	14.71
585.598	14.71
585.93	14.82
586.262	15.02
586.593	15.19
586.925	15.18
587.256	15.18
587.588	15.29
587.919	15.34
588.25	15.43
588.582	15.45
588.913	15.52
589.244	15.69
589.575	15.94
589.907	15.95
590.238	15.98
590.569	16.03
590.9	16.19
591.231	16.24
591.562	16.25
591.892	16.45
592.223	16.6
592.554	16.65
592.885	16.65
593.215	16.95
593.546	16.9
593.877	16.99
594.207	17.11
594.538	17.13
594.868	17.29
595.198	17.51
595.529	17.57
595.859	17.62
596.189	17.67
596.52	17.77
596.85	17.84
597.18	17.89
597.51	17.91
597.84	17.8
598.17	17.98
598.5	18.14
598.83	18.48
599.16	18.61
599.489	18.86
599.819	19.17
600.149	19.32
600.479	19.52
600.808	19.73
601.138	20
601.467	20.14
601.797	20.45
602.126	20.78
602.456	21.02
602.785	21.15
603.114	21.31
603.443	21.44
603.773	21.81
604.102	22.17
604.431	22.56
604.76	22.86
605.089	23.08
605.418	23.24
605.747	23.57
606.076	24.01
606.405	24.3
606.733	24.44
607.062	24.57
607.391	24.68
607.72	24.88
608.048	25.14
608.377	25.51
608.705	26
609.034	26.44
609.362	26.72
609.69	27.06
610.019	27.45
610.347	27.74
610.675	27.91
611.004	28.29
611.332	28.65
611.66	29.15
611.988	29.28
612.316	29.42
612.644	29.53
612.972	29.79
613.3	30.1
613.627	30.49
613.955	30.89
614.283	31.28
614.611	31.49
614.938	31.76
615.266	31.96
615.593	32.26
615.921	32.66
616.248	32.95
616.576	33.22
616.903	33.48
617.23	33.54
617.558	33.99
617.885	34.34
618.212	34.69
618.539	35.05
618.866	35.47
619.193	35.84
619.52	35.84
619.847	35.88
620.174	36.16
620.501	36.56
620.828	37.04
621.155	37.19
621.481	37.7
621.808	38.18
622.135	38.39
622.461	38.64
622.788	38.81
623.114	39.44
623.441	39.44
623.767	40.13
624.093	40.42
624.42	40.98
624.746	41.35
625.072	41.53
625.398	41.95
625.725	42.25
626.051	42.55
626.377	42.94
626.703	43.24
627.029	43.42
627.354	43.8
627.68	44.38
628.006	44.71
628.332	45.49
628.658	46.07
628.983	46.2
629.309	46.58
629.634	46.88
629.96	47.03
630.285	47.56
630.611	47.53
630.936	48.12
631.262	48.08
631.587	48.93
631.912	49.09
632.237	49.73
632.562	49.91
632.887	50.22
633.213	50.29
633.538	50.98
633.863	51.37
634.187	51.87
634.512	51.67
634.837	51.75
635.162	51.83
635.487	51.65
635.811	51.53
636.136	51.9
636.461	51.88
636.785	51.77
637.11	52.17
637.434	52.15
637.758	52.57
638.083	52.89
638.407	52.87
638.731	53.04
639.056	53.55
639.38	54.04
639.704	54.92
640.028	55.24
640.352	55.25
640.676	54.9
641	55.29
641.324	55.59
641.648	55.54
641.972	55.83
642.295	56.02
642.619	56.29
642.943	56.16
643.266	56.39
643.59	57.08
643.913	57.93
644.237	58.22
644.56	58.15
644.884	58.42
645.207	58.85
645.53	59.48
645.854	59.75
646.177	59.88
646.5	60.1
646.823	60.34
647.146	60.25
647.469	60.28
647.792	59.79
648.115	59.61
648.438	60.08
648.761	61.99
649.084	62.05
649.406	61.78
649.729	61.03
650.052	60.92
650.374	61.01
650.697	60.96
651.019	60.95
651.342	61.12
651.664	61.04
651.987	60.91
652.309	61.01
652.631	61.2
652.953	61.32
653.276	61.08
653.598	61.26
653.92	61.18
654.242	61.21
654.564	61.1
654.886	61.13
655.208	60.98
655.53	60.89
655.851	60.97
656.173	61.12
656.495	61.11
656.816	60.56
657.138	60.28
657.46	60.3
657.781	61.99
658.103	62.96
658.424	63.24
658.746	64.23
659.067	65.49
659.388	65.48
659.709	66.4
660.031	67.15
660.352	66.85
660.673	67.38
660.994	67.18
661.315	68.19
661.636	67.87
661.957	68.43
662.278	68.57
662.599	69.15
662.919	70.12
663.24	70.55
663.561	71.35
663.881	71.16
664.202	71.18
664.523	70.42
664.843	70.37
665.164	70.05
665.484	70.38
665.804	69.95
666.125	69.71
666.445	69.26
666.765	69.8
667.085	69.54
667.405	69.31
667.726	68.74
668.046	68.26
668.366	68.99
668.686	68.69
669.005	68.49
669.325	68.26
669.645	68.53
669.965	68.09
670.285	67.3
670.604	67.36
670.924	66.21
671.243	67.16
671.563	67.18
671.882	67.42
672.202	66.95
672.521	66.76
672.841	67.3
673.16	68.22
673.479	68.35
673.798	67.94
674.117	68.25
674.437	68.13
674.756	68.02
675.075	68.16
675.394	68.47
675.713	69.38
676.031	69.49
676.35	69.13
676.669	68.76
676.988	69.4
677.306	69.27
677.625	69.31
677.944	69.22
678.262	69.53
678.581	69.92
678.899	70.73
679.218	70.7
679.536	70.96
679.854	71.24
680.172	71.95
680.491	72.79
680.809	72.13
681.127	72.26
681.445	72.22
681.763	73.34
682.081	73.19
682.399	73.44
682.717	72.96
683.035	73.56
683.352	73.78
683.67	73.55
683.988	74.1
684.306	74.33
684.623	73.88
684.941	73.74
685.258	74.24
685.576	73.69
685.893	74
686.211	74.77
686.528	75.09
686.845	75.1
687.162	74.4
687.48	74.59
687.797	75.66
688.114	74.99
688.431	75.19
688.748	75.66
689.065	74.81
689.382	75.04
689.699	75.28
690.015	75.51
690.332	75.64
690.649	75.61
690.966	73.77
691.282	74.1
691.599	73.92
691.915	73.43
692.232	73.27
692.548	73.78
692.865	74.37
693.181	74.31
693.497	74.55
693.813	74.35
694.13	73.73
694.446	73.78
694.762	74.02
695.078	73.67
695.394	74.19
695.71	72.66
696.026	73.27
696.342	73.2
696.658	72.88
696.973	73.33
697.289	72.98
697.605	72.18
697.92	71.87
698.236	72.71
698.551	72.48
698.867	73.38
699.182	73.93
699.498	74.32
699.813	75.18
700.128	74.83
700.444	75.13
700.759	73.32
701.074	72.89
701.389	72.68
701.704	72.03
702.019	72.03
702.334	71.68
702.649	71.77
702.964	72.15
703.279	72
703.594	72.45
703.908	72.28
704.223	72.07
704.538	72.64
704.852	73.87
705.167	73.65
705.481	73.63
705.796	73.03
706.11	72.75
706.425	72.88
706.739	72.54
707.053	72.11
707.368	71.93
707.682	70.53
707.996	70.32
708.31	70.27
708.624	70.15
708.938	70.61
709.252	71.18
709.566	70.65
709.88	71.19
710.193	71.6
710.507	70.5
710.821	71.39
711.135	69.8
711.448	69.66
711.762	70.77
712.075	71.26
712.389	70.33
712.702	67.62
713.015	68.63
713.329	68.68
713.642	69.25
713.955	68.2
714.269	69.41
714.582	70.37
714.895	69.13
715.208	68.87
715.521	69.61
715.834	71.11
716.147	70.87
716.459	72.97
716.772	72.28
717.085	71.25
717.398	72.32
717.71	72.83
718.023	71.43
718.336	71.73
718.648	71.23
718.961	71.94
719.273	72.71
719.585	72.86
719.898	73.04
720.21	74.34
720.522	77.44
720.834	73.77
721.147	72.46
721.459	72.21
721.771	71.81
722.083	69.83
722.395	69.92
722.707	70.42
723.019	71.38
723.33	71.68
723.642	71.42
723.954	71.05
724.265	70.98
724.577	71.23
724.889	71.28
725.2	70.42
725.512	70.57
725.823	72.53
726.135	72.63
726.446	71.59
726.757	71.44
727.068	71.34
727.38	70.76
727.691	69.31
728.002	68.26
728.313	66.66
728.624	69.4
728.935	70.24
729.246	70.34
729.557	71.56
729.867	72.55
730.178	72.14
730.489	72.17
730.8	70.55
731.11	70.54
731.421	70.18
731.731	71.03
732.042	70.37
732.352	69.95
732.663	70.77
732.973	72.41
733.283	72.05
733.594	71.17
733.904	71.95
734.214	72.5
734.524	73.24
734.834	73.56
735.144	74.54
735.454	75.14
735.764	76.87
736.074	76.73
736.384	74.43
736.694	74.69
737.003	75.11
737.313	74.77
737.623	74.34
737.932	74.5
738.242	74.27
738.551	75.52
738.861	75.67
739.17	76.01
739.479	75.12
739.789	75.25
740.098	75.72
740.407	76.18
740.716	76.72
741.025	74.24
741.334	72.66
741.643	72.13
741.952	74.15
742.261	74.19
742.57	73.15
742.879	69.95
743.188	71.83
743.497	70.42
743.805	72.43
744.114	74.67
744.422	76.02
744.731	77.38
745.04	78.54
745.348	78.52
745.656	80.81
745.965	79.31
746.273	80.12
746.581	80.12
746.889	77.75
747.198	77.25
747.506	76.96
747.814	78.26
748.122	76.62
748.43	74.41
748.738	75.38
749.046	74.35
749.353	74.48
749.661	72.71
749.969	72.08
750.277	72.93
750.584	72.29
750.892	71.27
751.199	70.27
751.507	69.59
751.814	69.25
752.122	68.37
752.429	67.77
752.736	67.03
753.044	66.35
753.351	65.29
753.658	66.5
753.965	67.51
754.272	67.85
754.579	69.83
754.886	71.4
755.193	71.51
755.5	70.27
755.807	70.82
756.114	70.78
756.42	72.74
756.727	75.03
757.034	73.87
757.34	74.45
757.647	75.12
757.953	72.98
758.26	73.06
758.566	71.98
758.872	72.8
759.179	74.95
759.485	75.71
759.791	74.16
760.097	73.56
760.403	76.76
760.709	76.87
761.015	78.84
761.321	80.92
761.627	79.64
761.933	78.73
762.239	78.07
762.545	76.38
762.851	76.01
763.156	77.62
763.462	80.99
763.767	83.27
764.073	81.44
764.378	79.13
764.684	81.98
764.989	83.84
765.295	81.36
765.6	82.54
765.905	84.46
766.21	87.89
766.515	87.01
766.821	88.12
767.126	85.95
767.431	93.22
767.736	95.75
768.041	85.71
768.345	88.58
768.65	84.35
768.955	86.57
769.26	87.66
769.564	89.73
769.869	86.45
770.174	88.85
770.478	90.94
770.783	89.93
771.087	85.75
771.391	85.82
771.696	86.65
772	88.24
772.304	88.4
772.608	86.65
772.913	91.08
773.217	91.15
773.521	89.6
773.825	89.7
774.129	88.44
774.433	86.81
774.736	86.27
775.04	82.17
775.344	78.41
775.648	79.98
775.951	80.58
776.255	78.7
776.559	77.82
776.862	79.89
777.166	81.74
777.469	83.07
777.772	87.49
778.076	88.71
778.379	87.2
778.682	87.11
778.985	87.34
779.289	84.92
779.592	84.69
779.895	82.36
780.198	85.76
780.501	86.7
780.804	86.82
781.106	84.52
781.409	89.08
781.712	94.22
782.015	89.33
782.317	94.57
782.62	95.74
782.923	98.11
783.225	106.39
783.527	104.74
783.83	109.81
784.132	106.43
784.435	106.52
784.737	106.06
785.039	106.04
785.341	99.84
785.643	95.92
785.945	102.06
786.248	97.43
786.55	101.41
786.851	107.5
787.153	106.81
787.455	103.13
787.757	98.32
788.059	98.18
788.36	103.25
788.662	110.32
788.964	104.32
789.265	99.67
789.567	103.63
789.868	96.07
790.17	101.58
790.471	101.08
790.772	91.31
791.074	89.37
791.375	87.21
791.676	84.68
791.977	79.38
792.278	76.8
792.579	80.13
792.88	76.43
793.181	81.11
793.482	72.63
793.783	75.57
794.083	70.42
794.384	69.69
794.685	71.67
794.986	73.97
795.286	71.25
795.587	66.8
795.887	60.56
796.188	54.49
796.488	53.48
796.788	55.03
797.089	53.22
797.389	53.41
797.689	50.19
797.989	50.5
798.289	52.18
798.589	54.61
798.889	50.55
799.189	56.57
799.489	57.52
799.789	53.5
800.089	44.48
800.389	48.98
800.688	42.34
800.988	49.94
801.288	49.69
801.587	49.77
801.887	56.98
802.186	56.62
802.486	54.55
802.785	57.47
803.085	68.01
803.384	80.21
803.683	95.82
803.982	88.32
804.281	81.74
804.58	83.51
804.879	115.43
805.178	121.85
805.477	196.21
805.776	169.79
806.075	155.32
806.374	229.06
806.673	103.26
806.971	80.36
807.27	109.67
807.569	174.93
807.867	235.04
808.166	355.12
808.464	374.49
808.763	326.03
809.061	208.85
809.359	176.86
809.658	132.89
809.956	223.41
810.254	178.47
810.552	210.41
810.85	217.24
811.148	259.81
811.446	236.18
811.744	224.37
812.042	226.71
812.34	206.97
812.638	215.53
812.935	229
813.233	193.32
813.531	255.8
813.828	191.29
814.126	269.21
814.423	287.44
814.721	344.27
815.018	275.51
815.316	265.02
815.613	321.58
815.91	357.15
816.207	317.16
816.504	280.26
816.802	302.71
817.099	447.98
817.396	377.13
817.693	373.57
817.99	370.92
818.286	535.15
818.583	386.17
818.88	351.78
819.177	356.1
819.473	250.12
819.77	200.92
820.067	150.93
820.363	112.89
820.66	115.29
820.956	121.06
821.252	138.77
821.549	116.67
821.845	92.46
822.141	97.88
822.437	100.91
822.734	99.37
823.03	83.94
823.326	67.86
823.622	70.25
823.918	65.16
824.213	86.7
824.509	92.37
824.805	91.26
825.101	107.36
825.397	97.93
825.692	91.78
825.988	116.49
826.283	121.03
826.579	153.5
826.874	176.85
827.17	157.6
827.465	161.63
827.76	243.84
828.056	347.47
828.351	188.97
828.646	164.75
828.941	181.22
829.236	244.41
829.531	267.95
829.826	200.98
830.121	176.15
830.416	178.39
830.711	191.61
831.006	144.95
831.3	174.35
831.595	188.03
831.89	171.79
832.184	191.74
832.479	178.17
832.773	171.47
833.068	146.51
833.362	127.66
833.656	151.3
833.951	133.63
834.245	128.96
834.539	149.26
834.833	179.8
835.127	140.58
835.421	123.84
835.715	126.33
836.009	174.38
836.303	194.16
836.597	157.09
836.891	191.46
837.185	277.08
837.478	679.11
837.772	407.08
838.066	359.26
838.359	559.74
838.653	395.82
838.946	257.9
839.24	241.32
839.533	169.96
839.826	155.15
840.119	201.28
840.413	280.64
840.706	247.36
840.999	173.03
841.292	144.77
841.585	138.73
841.878	147.29
842.171	160.61
842.464	180.71
842.757	218.31
843.049	284.97
843.342	197.25
843.635	161.47
843.927	179.88
844.22	174
844.513	170.61
844.805	152.29
845.098	144.71
845.39	144.73
845.682	139.22
845.975	119.58
846.267	127.29
846.559	98.8
846.851	91.49
847.143	94.46
847.435	76.75
847.727	79.53
848.019	103.68
848.311	109.05
848.603	105.34
848.895	110.52
849.186	90.77
849.478	67.89
849.77	71.18
850.061	57.4
850.353	60.87
850.645	66.34
850.936	82.44
851.227	84.05
851.519	87.05
851.81	74.77
852.101	74.6
852.393	83.46
852.684	78.44
852.975	76.17
853.266	81.17
853.557	77.04
853.848	96.16
854.139	108.42
854.43	123.5
854.72	115.26
855.011	105.46
855.302	116
855.593	120.02
855.883	153.19
856.174	116.23
856.464	126.66
856.755	143.79
857.045	137.29
857.336	141.27
857.626	131.09
857.916	135.27
858.206	173.69
858.497	248.71
858.787	175.94
859.077	200
859.367	233.4
859.657	165.07
859.947	134.46
860.237	179.55
860.527	194.51
860.816	199.28
861.106	180.1
861.396	176.4
861.685	156.45
861.975	160.07
862.265	244.42
862.554	197.7
862.844	180.64
863.133	143.49
863.422	152.23
863.712	123.49
864.001	91.29
864.29	100.28
864.579	100.12
864.868	95.65
865.157	87.16
865.446	69.08
865.735	52.46
866.024	55.74
866.313	66.14
866.602	56.68
866.891	63.39
867.179	58.23
867.468	46.6
