Data from T2_Reflection__144__02-10-10-779.txt Node

Date: Fri Jun 04 02:10:10 CEST 2021
User: mabdelazizm
Spectrometer: FLMS18565
Trigger mode: 0
Integration Time (sec): 2.000000E0
Scans to average: 1
Electric dark correction enabled: true
Nonlinearity correction enabled: false
Boxcar width: 12
XAxis mode: Wavelengths
Number of Pixels in Spectrum: 2048
>>>>>Begin Spectral Data<<<<<
179.071	-755.16
179.452	-396.62
179.833	-293.01
180.214	-5900
180.595	-258.68
180.977	-352.71
181.358	-2408.16
181.739	1006.06
182.12	291.31
182.501	221.41
182.882	180.31
183.262	184.62
183.643	110.68
184.024	67.25
184.405	39.69
184.786	21.55
185.166	17.54
185.547	17.43
185.927	25.87
186.308	19.87
186.689	30.93
187.069	26.91
187.449	25.19
187.83	22.41
188.21	17.59
188.59	25.43
188.971	24.31
189.351	27.22
189.731	25.3
190.111	26.84
190.491	27.72
190.871	30.25
191.251	33.59
191.631	29.6
192.011	28.31
192.391	25.62
192.771	25.99
193.151	24.64
193.531	24.98
193.91	28.85
194.29	30.07
194.67	31.01
195.049	31.07
195.429	27.73
195.808	29.73
196.188	24.17
196.567	21.32
196.946	21.85
197.326	19.22
197.705	24.18
198.084	23.41
198.464	24.11
198.843	22.47
199.222	21.57
199.601	22.02
199.98	25.36
200.359	27.32
200.738	28.79
201.117	31.08
201.496	28.48
201.875	28.84
202.254	25.25
202.632	26.22
203.011	30.61
203.39	28.4
203.768	28.56
204.147	28.15
204.525	24.94
204.904	25.71
205.282	23.32
205.661	24.91
206.039	28.69
206.418	30.19
206.796	31.62
207.174	29.8
207.552	30.13
207.931	27.89
208.309	28.83
208.687	28.14
209.065	26.79
209.443	25.98
209.821	23.6
210.199	21.35
210.577	20.26
210.954	22.31
211.332	21.16
211.71	23.28
212.088	25.36
212.465	24.97
212.843	26.3
213.221	24.79
213.598	25.6
213.976	26.5
214.353	24.76
214.731	23.7
215.108	22.67
215.485	21.65
215.863	19.07
216.24	16.76
216.617	16.11
216.994	15.74
217.371	15.6
217.749	16.87
218.126	15.01
218.503	16.45
218.88	14.84
219.256	13.87
219.633	11.61
220.01	11.3
220.387	11.61
220.764	12.6
221.14	12.91
221.517	12.23
221.894	9.49
222.27	8.8
222.647	8.69
223.023	7.85
223.4	7.75
223.776	7.24
224.153	8.15
224.529	7.07
224.905	6.62
225.282	6.94
225.658	7.01
226.034	6.72
226.41	6.52
226.786	6.46
227.162	5.99
227.538	6.34
227.914	5.5
228.29	5.46
228.666	5.29
229.042	5.31
229.418	5.05
229.793	4.86
230.169	4.59
230.545	4.23
230.92	4.1
231.296	4.39
231.672	4.16
232.047	4.19
232.422	4.22
232.798	3.93
233.173	3.86
233.549	3.73
233.924	3.89
234.299	4.08
234.674	3.85
235.05	3.82
235.425	3.73
235.8	3.38
236.175	3.41
236.55	3.25
236.925	3.21
237.3	3.07
237.675	3.14
238.049	3.16
238.424	3.26
238.799	3.24
239.174	3.14
239.548	3.14
239.923	2.88
240.297	2.78
240.672	2.71
241.046	2.7
241.421	2.58
241.795	2.51
242.17	2.57
242.544	2.55
242.918	2.66
243.293	2.64
243.667	2.61
244.041	2.57
244.415	2.59
244.789	2.61
245.163	2.65
245.537	2.66
245.911	2.56
246.285	2.49
246.659	2.53
247.033	2.43
247.406	2.52
247.78	2.52
248.154	2.42
248.528	2.45
248.901	2.47
249.275	2.55
249.648	2.66
250.022	2.72
250.395	2.64
250.769	2.74
251.142	2.79
251.515	2.71
251.888	2.75
252.262	2.71
252.635	2.8
253.008	2.76
253.381	2.72
253.754	2.66
254.127	2.67
254.5	2.65
254.873	2.58
255.246	2.67
255.619	2.77
255.992	2.79
256.364	2.83
256.737	2.79
257.11	2.77
257.483	2.77
257.855	2.76
258.228	2.76
258.6	2.77
258.973	2.7
259.345	2.66
259.718	2.72
260.09	2.62
260.462	2.51
260.834	2.52
261.207	2.39
261.579	2.38
261.951	2.34
262.323	2.24
262.695	2.3
263.067	2.33
263.439	2.3
263.811	2.37
264.183	2.36
264.555	2.32
264.927	2.24
265.298	2.19
265.67	2.15
266.042	2.16
266.413	2.11
266.785	2.12
267.156	2.12
267.528	2.05
267.899	2
268.271	1.95
268.642	1.95
269.013	1.96
269.385	1.96
269.756	1.97
270.127	2
270.498	2.12
270.87	2.07
271.241	2.01
271.612	2.02
271.983	2.04
272.354	1.98
272.724	1.95
273.095	1.95
273.466	1.93
273.837	1.94
274.208	1.9
274.578	1.89
274.949	1.86
275.32	1.88
275.69	1.84
276.061	1.89
276.431	1.84
276.802	1.89
277.172	1.92
277.542	1.88
277.913	1.86
278.283	1.81
278.653	1.76
279.023	1.78
279.394	1.75
279.764	1.79
280.134	1.83
280.504	1.83
280.874	1.86
281.244	1.77
281.614	1.81
281.983	1.81
282.353	1.72
282.723	1.76
283.093	1.7
283.462	1.72
283.832	1.71
284.202	1.7
284.571	1.59
284.941	1.67
285.31	1.67
285.68	1.73
286.049	1.7
286.418	1.65
286.788	1.83
287.157	1.85
287.526	1.83
287.895	1.86
288.264	1.88
288.633	1.86
289.002	1.8
289.371	1.75
289.74	1.69
290.109	1.66
290.478	1.69
290.847	1.7
291.216	1.68
291.585	1.63
291.953	1.69
292.322	1.76
292.691	1.73
293.059	1.76
293.428	1.74
293.796	1.74
294.165	1.67
294.533	1.63
294.901	1.66
295.27	1.64
295.638	1.66
296.006	1.51
296.374	1.47
296.743	1.48
297.111	1.52
297.479	1.43
297.847	1.4
298.215	1.36
298.583	1.33
298.95	1.4
299.318	1.39
299.686	1.33
300.054	1.32
300.422	1.36
300.789	1.39
301.157	1.3
301.525	1.27
301.892	1.24
302.26	1.22
302.627	1.25
302.994	1.26
303.362	1.27
303.729	1.34
304.097	1.25
304.464	1.25
304.831	1.19
305.198	1.12
305.565	1.05
305.932	1.01
306.299	0.96
306.666	1.01
307.033	1.05
307.4	1.09
307.767	1.01
308.134	0.96
308.501	0.95
308.867	0.89
309.234	0.83
309.601	0.74
309.967	0.76
310.334	0.69
310.701	0.68
311.067	0.74
311.433	0.74
311.8	0.78
312.166	0.76
312.533	0.78
312.899	0.74
313.265	0.68
313.631	0.64
313.997	0.63
314.363	0.66
314.729	0.72
315.096	0.8
315.461	0.83
315.827	0.73
316.193	0.67
316.559	0.53
316.925	0.66
317.291	0.59
317.656	0.6
318.022	0.67
318.388	0.64
318.753	0.73
319.119	0.75
319.484	0.84
319.85	0.83
320.215	0.85
320.581	0.8
320.946	0.79
321.311	0.81
321.676	0.78
322.042	0.66
322.407	0.67
322.772	0.63
323.137	0.69
323.502	0.65
323.867	0.7
324.232	0.66
324.597	0.63
324.962	0.75
325.327	0.81
325.691	0.94
326.056	0.85
326.421	0.94
326.785	0.95
327.15	1
327.514	1.03
327.879	1
328.243	0.98
328.608	0.96
328.972	0.96
329.337	0.94
329.701	0.92
330.065	0.97
330.429	0.98
330.794	0.95
331.158	1.1
331.522	1.16
331.886	1.24
332.25	1.23
332.614	1.31
332.978	1.19
333.342	1.2
333.705	1.23
334.069	1.22
334.433	1.11
334.797	1.05
335.16	1.11
335.524	1.05
335.887	0.98
336.251	0.83
336.614	0.91
336.978	0.89
337.341	0.9
337.705	0.88
338.068	0.93
338.431	0.9
338.794	0.88
339.158	0.75
339.521	0.71
339.884	0.72
340.247	0.63
340.61	0.58
340.973	0.51
341.336	0.54
341.699	0.52
342.062	0.52
342.424	0.49
342.787	0.38
343.15	0.32
343.512	0.45
343.875	0.49
344.238	0.41
344.6	0.45
344.963	0.55
345.325	0.62
345.688	0.54
346.05	0.54
346.412	0.5
346.775	0.57
347.137	0.54
347.499	0.61
347.861	0.66
348.223	0.69
348.585	0.74
348.947	0.72
349.309	0.71
349.671	0.7
350.033	0.8
350.395	0.8
350.757	0.87
351.118	0.92
351.48	0.98
351.842	0.94
352.203	0.97
352.565	0.8
352.927	0.75
353.288	0.82
353.65	0.79
354.011	0.7
354.372	0.75
354.734	0.84
355.095	0.88
355.456	0.93
355.817	0.82
356.179	0.78
356.54	0.73
356.901	0.72
357.262	0.74
357.623	0.7
357.984	0.75
358.345	0.79
358.705	0.79
359.066	0.72
359.427	0.69
359.788	0.69
360.148	0.63
360.509	0.54
360.87	0.71
361.23	0.75
361.591	0.84
361.951	0.9
362.312	0.95
362.672	1
363.032	1.04
363.393	0.94
363.753	0.86
364.113	0.83
364.473	0.96
364.833	0.95
365.193	0.96
365.553	0.99
365.913	0.96
366.273	1.04
366.633	1.06
366.993	1.06
367.353	1.01
367.713	1.02
368.072	1.1
368.432	1
368.792	1
369.151	1.05
369.511	1.01
369.87	0.94
370.23	0.97
370.589	1.04
370.949	0.98
371.308	0.94
371.667	0.96
372.027	0.96
372.386	1.07
372.745	1.11
373.104	1.08
373.463	1
373.822	1.01
374.181	0.99
374.54	0.97
374.899	1.11
375.258	1.02
375.617	1.03
375.975	1.13
376.334	1.12
376.693	1.18
377.052	1.13
377.41	1.26
377.769	1.26
378.127	1.32
378.486	1.45
378.844	1.59
379.202	1.6
379.561	1.48
379.919	1.42
380.277	1.45
380.636	1.39
380.994	1.42
381.352	1.43
381.71	1.42
382.068	1.46
382.426	1.34
382.784	1.43
383.142	1.48
383.5	1.48
383.857	1.51
384.215	1.54
384.573	1.55
384.931	1.44
385.288	1.49
385.646	1.54
386.003	1.59
386.361	1.6
386.718	1.58
387.076	1.52
387.433	1.52
387.791	1.42
388.148	1.4
388.505	1.56
388.862	1.7
389.22	1.76
389.577	1.83
389.934	1.89
390.291	2.04
390.648	2.15
391.005	2.29
391.362	2.53
391.718	2.56
392.075	2.63
392.432	2.77
392.789	2.81
393.145	2.94
393.502	3.08
393.859	3.22
394.215	3.39
394.572	3.52
394.928	3.67
395.285	3.81
395.641	4.05
395.997	4.41
396.354	4.6
396.71	4.88
397.066	5.11
397.422	5.42
397.778	5.68
398.134	6.01
398.491	6.25
398.846	6.49
399.202	6.77
399.558	7.04
399.914	7.35
400.27	7.6
400.626	7.99
400.981	8.38
401.337	8.75
401.693	9.13
402.048	9.52
402.404	9.91
402.759	10.47
403.115	10.92
403.47	11.44
403.826	12.09
404.181	12.58
404.536	13.05
404.892	13.43
405.247	13.99
405.602	14.54
405.957	15.15
406.312	15.58
406.667	16.09
407.022	16.67
407.377	17.36
407.732	17.93
408.087	18.49
408.442	19.07
408.796	19.6
409.151	20.34
409.506	20.89
409.86	21.52
410.215	22.2
410.57	22.82
410.924	23.38
411.279	24
411.633	24.57
411.987	25.26
412.342	25.73
412.696	26.15
413.05	26.83
413.404	27.54
413.758	28.2
414.113	28.75
414.467	29.26
414.821	29.8
415.175	30.49
415.529	31.27
415.882	31.74
416.236	32.23
416.59	32.7
416.944	33.22
417.298	33.89
417.651	34.39
418.005	34.79
418.358	35.38
418.712	35.85
419.065	36.31
419.419	36.81
419.772	37.23
420.126	37.67
420.479	38.02
420.832	38.33
421.185	38.83
421.539	39.27
421.892	39.58
422.245	39.91
422.598	40.27
422.951	40.7
423.304	40.97
423.657	41.25
424.01	41.67
424.363	41.95
424.715	42.33
425.068	42.81
425.421	43.44
425.773	43.8
426.126	44.11
426.479	44.53
426.831	44.78
427.184	44.99
427.536	45.32
427.889	45.7
428.241	45.98
428.593	46.16
428.945	46.44
429.298	46.85
429.65	47.13
430.002	47.33
430.354	47.47
430.706	47.7
431.058	47.9
431.41	48.23
431.762	48.38
432.114	48.74
432.466	48.92
432.817	49.09
433.169	49.19
433.521	49.51
433.872	49.51
434.224	49.53
434.576	49.57
434.927	49.78
435.279	49.84
435.63	50.06
435.981	50.29
436.333	50.49
436.684	50.5
437.035	50.46
437.387	50.81
437.738	50.97
438.089	50.91
438.44	51.14
438.791	51.31
439.142	51.47
439.493	51.67
439.844	51.65
440.195	51.48
440.545	51.62
440.896	51.67
441.247	51.84
441.598	51.69
441.948	51.69
442.299	51.63
442.649	51.81
443	51.85
443.35	52
443.701	52
444.051	52.05
444.401	52.19
444.752	52.1
445.102	51.99
445.452	51.89
445.802	52.11
446.152	52.26
446.502	52.23
446.852	52.22
447.202	52.15
447.552	52.07
447.902	52.05
448.252	52.04
448.602	51.15
448.952	51.19
449.301	51.19
449.651	51.24
450.001	51.21
450.35	51.35
450.7	51.37
451.049	51.46
451.399	51.46
451.748	51.44
452.097	51.43
452.447	51.31
452.796	51.42
453.145	51.31
453.494	51.42
453.843	51.36
454.193	51.48
454.542	51.45
454.891	51.21
455.239	51.17
455.588	51.22
455.937	51.17
456.286	51.24
456.635	51.22
456.984	51.05
457.332	52.2
457.681	52.29
458.03	52.24
458.378	52.14
458.727	52.33
459.075	52.19
459.423	52.44
459.772	52.22
460.12	52.06
460.468	51.99
460.817	52.02
461.165	51.99
461.513	51.89
461.861	51.94
462.209	51.76
462.557	51.78
462.905	51.7
463.253	51.51
463.601	51.59
463.949	51.59
464.297	51.5
464.644	51.42
464.992	51.22
465.34	51.34
465.687	51.4
466.035	51.2
466.383	51.14
466.73	51.01
467.078	50.89
467.425	50.55
467.772	50.55
468.12	50.27
468.467	50.29
468.814	50.41
469.161	50.36
469.508	50.24
469.856	50.2
470.203	49.99
470.55	49.75
470.897	49.69
471.243	49.68
471.59	49.53
471.937	49.53
472.284	49.45
472.631	49.25
472.977	48.96
473.324	48.85
473.671	48.68
474.017	48.33
474.364	48.25
474.71	48.18
475.057	48.03
475.403	47.96
475.749	47.93
476.096	47.79
476.442	47.72
476.788	47.51
477.134	47.25
477.48	47.05
477.826	46.91
478.172	46.69
478.518	46.51
478.864	46.39
479.21	46.38
479.556	46.14
479.902	45.9
480.248	45.78
480.593	45.59
480.939	45.37
481.285	45.24
481.63	45.23
481.976	45.08
482.321	45.05
482.667	44.94
483.012	44.73
483.357	44.65
483.703	44.54
484.048	44.46
484.393	44.21
484.738	44.15
485.084	43.99
485.429	43.9
485.774	43.85
486.119	43.69
486.464	43.54
486.808	43.46
487.153	43.29
487.498	43.18
487.843	42.96
488.188	42.94
488.532	42.86
488.877	42.63
489.222	42.48
489.566	42.29
489.911	42.3
490.255	42.15
490.6	42
490.944	41.78
491.288	41.62
491.633	41.52
491.977	41.25
492.321	41.11
492.665	40.8
493.009	40.65
493.353	40.43
493.697	40.33
494.041	40.1
494.385	39.92
494.729	39.74
495.073	39.6
495.417	39.41
495.76	39.22
496.104	39.03
496.448	38.83
496.791	38.57
497.135	38.33
497.479	38.3
497.822	38.13
498.165	37.98
498.509	37.72
498.852	37.46
499.196	37.35
499.539	37.25
499.882	37.08
500.225	37
500.568	36.8
500.911	36.6
501.254	36.54
501.597	36.46
501.94	36.31
502.283	36.09
502.626	36.07
502.969	35.91
503.312	35.74
503.654	35.65
503.997	35.5
504.34	35.48
504.682	35.29
505.025	35.13
505.367	34.97
505.71	34.7
506.052	34.42
506.395	34.29
506.737	34.2
507.079	34.01
507.421	33.87
507.764	33.69
508.106	33.54
508.448	33.46
508.79	33.19
509.132	33.24
509.474	33.06
509.816	32.9
510.158	32.74
510.499	32.63
510.841	32.39
511.183	32.21
511.525	32.06
511.866	32.07
512.208	31.8
512.549	31.7
512.891	31.62
513.232	31.59
513.574	31.5
513.915	31.43
514.256	31.46
514.598	31.46
514.939	31.35
515.28	31.13
515.621	31.07
515.962	31.07
516.303	30.93
516.644	30.84
516.985	30.69
517.326	30.63
517.667	30.33
518.008	30.19
518.349	30.12
518.69	30.01
519.03	29.82
519.371	29.98
519.712	29.8
520.052	29.68
520.393	29.38
520.733	29.39
521.074	29.24
521.414	28.95
521.754	28.73
522.095	28.65
522.435	28.56
522.775	28.36
523.115	28.23
523.455	27.92
523.795	27.86
524.135	27.7
524.475	27.54
524.815	27.38
525.155	27.3
525.495	27.17
525.835	26.97
526.175	27.04
526.514	27.07
526.854	26.96
527.194	26.92
527.533	26.82
527.873	26.52
528.212	26.43
528.552	26.42
528.891	26.49
529.23	26.39
529.57	26.39
529.909	26.2
530.248	26.14
530.587	26.12
530.927	26.06
531.266	26.04
531.605	25.87
531.944	25.88
532.283	25.72
532.621	25.68
532.96	25.73
533.299	25.73
533.638	25.6
533.977	25.46
534.315	25.54
534.654	25.17
534.992	25.07
535.331	24.86
535.67	24.74
536.008	24.76
536.346	24.59
536.685	24.44
537.023	24.38
537.361	24.13
537.7	24
538.038	23.8
538.376	23.79
538.714	23.77
539.052	23.66
539.39	23.53
539.728	23.47
540.066	23.51
540.404	23.45
540.741	23.32
541.079	23.18
541.417	23.05
541.755	22.9
542.092	22.7
542.43	22.79
542.767	22.49
543.105	22.62
543.442	22.48
543.78	22.44
544.117	22.33
544.454	22.2
544.792	22.18
545.129	22.3
545.466	22.09
545.803	22.15
546.14	22.27
546.477	22.28
546.814	22.33
547.151	22.36
547.488	22.25
547.825	22.1
548.162	22.09
548.499	22.01
548.835	22.07
549.172	22.06
549.509	22
549.845	21.84
550.182	21.71
550.518	21.78
550.855	21.88
551.191	22.02
551.528	21.91
551.864	21.97
552.2	22.04
552.537	22.1
552.873	22.03
553.209	22.04
553.545	21.82
553.881	21.86
554.217	21.95
554.553	21.78
554.889	21.76
555.225	21.64
555.561	21.62
555.896	21.53
556.232	21.73
556.568	21.66
556.903	21.73
557.239	21.7
557.575	21.77
557.91	21.81
558.245	21.89
558.581	22.11
558.916	22.23
559.252	22.07
559.587	22.01
559.922	22.04
560.257	21.96
560.592	21.96
560.928	21.97
561.263	22.1
561.598	22.22
561.933	22.5
562.267	22.78
562.602	22.68
562.937	22.8
563.272	22.87
563.607	22.88
563.941	22.81
564.276	22.91
564.611	22.87
564.945	22.96
565.28	22.8
565.614	22.81
565.949	22.88
566.283	23.01
566.617	23.04
566.951	23.1
567.286	23.11
567.62	23.13
567.954	23.21
568.288	23.33
568.622	23.31
568.956	23.32
569.29	23.38
569.624	23.46
569.958	23.49
570.292	23.52
570.626	23.4
570.959	23.48
571.293	23.43
571.627	23.42
571.96	23.52
572.294	23.6
572.627	23.75
572.961	23.81
573.294	23.86
573.627	24
573.961	24.05
574.294	23.99
574.627	24.02
574.961	24.05
575.294	24.05
575.627	23.97
575.96	24.01
576.293	24.03
576.626	24.01
576.959	24.15
577.292	24.22
577.624	24.27
577.957	24.26
578.29	24.23
578.623	24.3
578.955	24.33
579.288	24.3
579.62	24.43
579.953	24.54
580.285	24.59
580.618	24.73
580.95	24.58
581.282	24.66
581.615	24.65
581.947	24.74
582.279	24.82
582.611	24.93
582.943	24.97
583.275	25.06
583.607	25.19
583.939	25.44
584.271	25.5
584.603	25.6
584.935	25.77
585.267	25.93
585.598	25.98
585.93	25.98
586.262	26.12
586.593	26.23
586.925	26.2
587.256	26.37
587.588	26.44
587.919	26.47
588.25	26.51
588.582	26.45
588.913	26.42
589.244	26.69
589.575	26.78
589.907	26.9
590.238	26.91
590.569	27.17
590.9	27.31
591.231	27.34
591.562	27.38
591.892	27.45
592.223	27.57
592.554	27.66
592.885	27.78
593.215	27.92
593.546	27.84
593.877	28.01
594.207	28.2
594.538	28.33
594.868	28.53
595.198	28.75
595.529	28.82
595.859	28.98
596.189	29.13
596.52	29.31
596.85	29.54
597.18	29.65
597.51	29.72
597.84	29.73
598.17	29.8
598.5	29.93
598.83	29.98
599.16	30.18
599.489	30.29
599.819	30.51
600.149	30.74
600.479	30.85
600.808	31.05
601.138	31.37
601.467	31.44
601.797	31.78
602.126	32.1
602.456	32.38
602.785	32.56
603.114	32.8
603.443	32.98
603.773	33.34
604.102	33.65
604.431	33.9
604.76	34.16
605.089	34.44
605.418	34.56
605.747	34.93
606.076	35.26
606.405	35.59
606.733	35.94
607.062	36.25
607.391	36.54
607.72	37.06
608.048	37.33
608.377	37.46
608.705	37.98
609.034	38.36
609.362	38.61
609.69	39.05
610.019	39.41
610.347	39.39
610.675	39.53
611.004	39.7
611.332	40.01
611.66	40.49
611.988	40.56
612.316	40.85
612.644	40.95
612.972	41.12
613.3	41.46
613.627	41.86
613.955	42.21
614.283	42.48
614.611	42.79
614.938	43.01
615.266	43.21
615.593	43.45
615.921	43.7
616.248	43.92
616.576	44.61
616.903	44.78
617.23	45.36
617.558	45.88
617.885	46.46
618.212	46.92
618.539	47.66
618.866	48.04
619.193	48.59
619.52	48.58
619.847	48.54
620.174	49.09
620.501	49.08
620.828	49.31
621.155	49.81
621.481	50.11
621.808	50.44
622.135	50.48
622.461	50.88
622.788	51.1
623.114	51.34
623.441	51.4
623.767	51.57
624.093	51.66
624.42	52.5
624.746	52.89
625.072	53.25
625.398	53.16
625.725	53.26
626.051	53.11
626.377	53.35
626.703	53.27
627.029	53.34
627.354	53.42
627.68	54.01
628.006	54.5
628.332	54.56
628.658	55.21
628.983	55.85
629.309	56.19
629.634	56.28
629.96	56.38
630.285	56.57
630.611	56.45
630.936	57.13
631.262	57.44
631.587	57.75
631.912	58.05
632.237	59.09
632.562	59.44
632.887	58.96
633.213	59.05
633.538	59.89
633.863	60.54
634.187	60.75
634.512	60.88
634.837	61.02
635.162	60.69
635.487	61.08
635.811	61.05
636.136	61.27
636.461	61.6
636.785	61.92
637.11	62.23
637.434	61.94
637.758	62.46
638.083	62.74
638.407	63.23
638.731	63.73
639.056	63.51
639.38	63.3
639.704	63.68
640.028	64.55
640.352	64.02
640.676	62.39
641	63.01
641.324	62.48
641.648	61.62
641.972	61.1
642.295	61.91
642.619	61.79
642.943	61.65
643.266	62.27
643.59	62.09
643.913	62.18
644.237	62.06
644.56	61.96
644.884	62.39
645.207	62.23
645.53	62.54
645.854	62.48
646.177	62.83
646.5	63.03
646.823	63.54
647.146	63.55
647.469	63.97
647.792	64.27
648.115	63.98
648.438	64.89
648.761	67.76
649.084	68.4
649.406	69.19
649.729	68.84
650.052	68.42
650.374	68.1
650.697	68.18
651.019	68.32
651.342	68.58
651.664	68.68
651.987	68.73
652.309	68.8
652.631	69.07
652.953	68.94
653.276	68.99
653.598	69.37
653.92	69.24
654.242	69.47
654.564	69.56
654.886	69.41
655.208	69.42
655.53	69.2
655.851	69.19
656.173	69.15
656.495	69.23
656.816	68.74
657.138	68.66
657.46	68.21
657.781	69.44
658.103	71.56
658.424	72.9
658.746	73.34
659.067	73.94
659.388	73.05
659.709	73.29
660.031	73.39
660.352	73.28
660.673	73.04
660.994	73.81
661.315	73.94
661.636	71.91
661.957	73.03
662.278	72.44
662.599	71.3
662.919	70.69
663.24	70.75
663.561	71.87
663.881	71.12
664.202	71.72
664.523	70.01
664.843	70.19
665.164	69.22
665.484	69.51
665.804	69.41
666.125	69.09
666.445	68.48
666.765	69.12
667.085	69.53
667.405	70.17
667.726	69.96
668.046	69.38
668.366	70.09
668.686	69.68
669.005	68.65
669.325	69.14
669.645	69.24
669.965	69.08
670.285	68.77
670.604	69.25
670.924	69.86
671.243	70.28
671.563	69.47
671.882	69.73
672.202	69.63
672.521	70.21
672.841	69.53
673.16	70.29
673.479	69.96
673.798	68.87
674.117	68.6
674.437	68.43
674.756	68.43
675.075	67.86
675.394	67.88
675.713	68.77
676.031	69.43
676.35	69.57
676.669	69.69
676.988	70.21
677.306	69
677.625	69.86
677.944	70.15
678.262	70.3
678.581	70.93
678.899	71.81
679.218	72.13
679.536	73.11
679.854	73.59
680.172	73.69
680.491	74.18
680.809	74.31
681.127	74.34
681.445	74.7
681.763	76.44
682.081	76.3
682.399	77.27
682.717	76.94
683.035	77.69
683.352	78.26
683.67	78.18
683.988	79.31
684.306	79.44
684.623	79.83
684.941	79.7
685.258	80.26
685.576	80.88
685.893	80.82
686.211	81.76
686.528	83.18
686.845	82.24
687.162	81.49
687.48	80.89
687.797	81.51
688.114	81.75
688.431	82.13
688.748	82.5
689.065	81.79
689.382	81.63
689.699	80.64
690.015	81.32
690.332	80.71
690.649	80.84
690.966	79.17
691.282	78.9
691.599	78.84
691.915	77.22
692.232	76.94
692.548	76.94
692.865	77.51
693.181	78.12
693.497	77.37
693.813	76.86
694.13	75.57
694.446	74.37
694.762	74.38
695.078	75.62
695.394	76.66
695.71	75.86
696.026	75.34
696.342	74.41
696.658	74.23
696.973	74.57
697.289	74.71
697.605	75.35
697.92	74.78
698.236	75.31
698.551	74.57
698.867	75.99
699.182	75.98
699.498	76.09
699.813	77.09
700.128	76.7
700.444	76.31
700.759	76.02
701.074	75.48
701.389	75.28
701.704	75.41
702.019	75.35
702.334	74.91
702.649	75.46
702.964	74.59
703.279	74.11
703.594	74.21
703.908	74.1
704.223	74.78
704.538	75.07
704.852	75.85
705.167	76.65
705.481	75.25
705.796	75.08
706.11	74.23
706.425	75.22
706.739	75.05
707.053	75.03
707.368	75.68
707.682	75
707.996	74.78
708.31	74.29
708.624	72.96
708.938	73.37
709.252	73.66
709.566	72.32
709.88	73.23
710.193	74.26
710.507	73.16
710.821	74.12
711.135	73.11
711.448	73.57
711.762	73.83
712.075	73.35
712.389	73.28
712.702	71.91
713.015	72
713.329	72.25
713.642	73.11
713.955	73.54
714.269	72.59
714.582	71.73
714.895	71.59
715.208	71.35
715.521	70.88
715.834	73.45
716.147	73.57
716.459	74.29
716.772	73.93
717.085	74.15
717.398	76.4
717.71	75.23
718.023	74.38
718.336	74.83
718.648	74.28
718.961	76.34
719.273	77
719.585	78.8
719.898	79
720.21	80.18
720.522	82.15
720.834	79.75
721.147	80.04
721.459	79.26
721.771	78.57
722.083	78.53
722.395	80.56
722.707	80.04
723.019	79.29
723.33	81.64
723.642	80.33
723.954	80.44
724.265	82.59
724.577	83.74
724.889	83.81
725.2	81.67
725.512	82.34
725.823	82.76
726.135	81.73
726.446	79.9
726.757	78.14
727.068	77.48
727.38	75.59
727.691	75.21
728.002	74.33
728.313	72.61
728.624	72.93
728.935	73.1
729.246	73.28
729.557	74.24
729.867	74.4
730.178	73.07
730.489	72.19
730.8	72.14
731.11	71.92
731.421	71.32
731.731	71.75
732.042	71.4
732.352	69.55
732.663	68.89
732.973	69.94
733.283	70.56
733.594	70.12
733.904	71.18
734.214	72.46
734.524	74.36
734.834	74.58
735.144	75.64
735.454	75.73
735.764	76.37
736.074	77.1
736.384	76.58
736.694	77.47
737.003	77.01
737.313	77.18
737.623	77.42
737.932	77.58
738.242	79.76
738.551	77.66
738.861	76.89
739.17	75.55
739.479	75.33
739.789	74.44
740.098	76.04
740.407	76.87
740.716	77.83
741.025	76.06
741.334	74.99
741.643	76.17
741.952	79.52
742.261	77.75
742.57	78.89
742.879	76.08
743.188	78.34
743.497	78.7
743.805	79.09
744.114	82.44
744.422	84.12
744.731	85.39
745.04	83.94
745.348	84.73
745.656	86.36
745.965	83.19
746.273	87.66
746.581	86.63
746.889	87.42
747.198	86.65
747.506	85.67
747.814	86.44
748.122	83.48
748.43	79.41
748.738	75.59
749.046	74.51
749.353	73.11
749.661	70.76
749.969	71.85
750.277	71.03
750.584	71.35
750.892	70.71
751.199	68.94
751.507	67.2
751.814	66.13
752.122	65.45
752.429	65.88
752.736	67.61
753.044	66.79
753.351	68.05
753.658	68.74
753.965	66.99
754.272	66.9
754.579	66.16
754.886	66.22
755.193	67.18
755.5	66.76
755.807	67.88
756.114	69.3
756.42	72.43
756.727	75.01
757.034	77.07
757.34	77.03
757.647	75.6
757.953	74.46
758.26	74.34
758.566	72.32
758.872	72.78
759.179	74.66
759.485	74.98
759.791	73.86
760.097	73.37
760.403	74.14
760.709	76.26
761.015	73.78
761.321	76.66
761.627	76.96
761.933	77.7
762.239	78.36
762.545	78.54
762.851	76.18
763.156	77.05
763.462	80.47
763.767	85.66
764.073	84.17
764.378	83.74
764.684	82.96
764.989	82.44
765.295	81.33
765.6	82.1
765.905	84.94
766.21	88.68
766.515	88.62
766.821	91.12
767.126	89.68
767.431	92.34
767.736	96.36
768.041	91.4
768.345	84.41
768.65	84.2
768.955	84.1
769.26	86.56
769.564	87.98
769.869	87.87
770.174	89.47
770.478	94.47
770.783	92.3
771.087	92.29
771.391	84.76
771.696	86.11
772	85.37
772.304	85.65
772.608	87.25
772.913	90.61
773.217	90.9
773.521	91.7
773.825	86.95
774.129	86.75
774.433	84.84
774.736	85.7
775.04	87.17
775.344	76.89
775.648	74.54
775.951	80.23
776.255	82.57
776.559	79.03
776.862	77.64
777.166	78.56
777.469	77.47
777.772	82.95
778.076	84.35
778.379	78.13
778.682	75.22
778.985	76.57
779.289	75.17
779.592	76.7
779.895	75.27
780.198	78.43
780.501	77.28
780.804	73.27
781.106	65.67
781.409	69.54
781.712	72.71
782.015	71.66
782.317	74.19
782.62	72.21
782.923	80.63
783.225	85.87
783.527	84.45
783.83	83.91
784.132	86.73
784.435	86.13
784.737	82.4
785.039	84.62
785.341	76.72
785.643	68.83
785.945	80.96
786.248	82.15
786.55	82.22
786.851	84.39
787.153	77.24
787.455	75.28
787.757	70.18
788.059	69.54
788.36	74.98
788.662	85.38
788.964	87.92
789.265	80.15
789.567	84.01
789.868	76.36
790.17	82.35
790.471	82.63
790.772	77.11
791.074	80.08
791.375	75.7
791.676	74.39
791.977	68.29
792.278	66.28
792.579	65.23
792.88	64.68
793.181	68.84
793.482	62.57
793.783	59.83
794.083	63.39
794.384	63.35
794.685	64.74
794.986	67.56
795.286	70.27
795.587	66.76
795.887	64.94
796.188	58.59
796.488	56.74
796.788	62.45
797.089	57.32
797.389	63.88
797.689	54.53
797.989	49.35
798.289	50.92
798.589	48.14
798.889	44.24
799.189	42.1
799.489	55.77
799.789	66.52
800.089	60.78
800.389	63.35
800.688	52.39
800.988	55.25
801.288	57.94
801.587	49.06
801.887	49.81
802.186	58.79
802.486	47.07
802.785	49.57
803.085	65.9
803.384	70.03
803.683	89.11
803.982	71.41
804.281	42.88
804.58	75.72
804.879	96.24
805.178	145.52
805.477	254.2
805.776	237.94
806.075	194.72
806.374	247.41
806.673	154.31
806.971	159.76
807.27	156.23
807.569	237.79
807.867	299.56
808.166	437.34
808.464	556.75
808.763	410.68
809.061	302.67
809.359	287.37
809.658	175.32
809.956	353.19
810.254	223.05
810.552	268.51
810.85	309.11
811.148	346.6
811.446	321.07
811.744	244.78
812.042	221.39
812.34	202.29
812.638	184.18
812.935	185.61
813.233	147.1
813.531	150.6
813.828	111.2
814.126	141.88
814.423	142.92
814.721	163.56
815.018	132.14
815.316	141.43
815.613	200.61
815.91	195.39
816.207	206.82
816.504	174.69
816.802	220.05
817.099	312.94
817.396	229.86
817.693	228.88
817.99	270.2
818.286	369.7
818.583	260.7
818.88	253.79
819.177	333.1
819.473	254.91
819.77	179.44
820.067	140.74
820.363	110.86
820.66	85.23
820.956	116.58
821.252	147.62
821.549	147.55
821.845	120.82
822.141	116.93
822.437	109.78
822.734	106.03
823.03	98.8
823.326	99.11
823.622	123.58
823.918	119.65
824.213	132.56
824.509	136.57
824.805	138.75
825.101	121.41
825.397	102.23
825.692	98.07
825.988	121.11
826.283	110.78
826.579	142.36
826.874	145.95
827.17	165.62
827.465	163.81
827.76	272.67
828.056	485.53
828.351	268.44
828.646	242.16
828.941	232.76
829.236	329.4
829.531	445.3
829.826	365.62
830.121	307.8
830.416	281.13
830.711	239.34
831.006	155.7
831.3	193.78
831.595	182.1
831.89	179.36
832.184	197.87
832.479	207.25
832.773	201.27
833.068	176.11
833.362	156.85
833.656	189.52
833.951	151.38
834.245	147.06
834.539	187.57
834.833	249.34
835.127	185.35
835.421	161.17
835.715	160.98
836.009	247.06
836.303	293.17
836.597	231.2
836.891	257.93
837.185	304.2
837.478	716.45
837.772	446.92
838.066	445.71
838.359	646.8
838.653	438.21
838.946	370.34
839.24	292.58
839.533	204.74
839.826	164.24
840.119	165.1
840.413	204.77
840.706	222.22
840.999	184.76
841.292	165.79
841.585	166.76
841.878	153.64
842.171	150.82
842.464	179.99
842.757	212.59
843.049	236.89
843.342	171.19
843.635	134.51
843.927	123.77
844.22	127.05
844.513	124.04
844.805	114.91
845.098	99
845.39	105.21
845.682	115.74
845.975	117.24
846.267	114.84
846.559	102.43
846.851	89.92
847.143	100.78
847.435	110.09
847.727	130.79
848.019	124.99
848.311	108.26
848.603	82.28
848.895	78.43
849.186	55.46
849.478	47.26
849.77	31.09
850.061	23.45
850.353	40.18
850.645	34.41
850.936	30.18
851.227	53.16
851.519	24.37
851.81	37.83
852.101	38.9
852.393	43.16
852.684	37.41
852.975	30.96
853.266	30.38
853.557	31.4
853.848	39.05
854.139	53
854.43	61.36
854.72	45.73
855.011	32.26
855.302	34.22
855.593	48.39
855.883	61.87
856.174	38.03
856.464	48.54
856.755	43.51
857.045	60.67
857.336	73.51
857.626	57.93
857.916	55.47
858.206	87.44
858.497	81.1
858.787	110.69
859.077	125.71
859.367	159.73
859.657	117.42
859.947	96.16
860.237	132.75
860.527	111.27
860.816	118.19
861.106	133.01
861.396	126.06
861.685	100.81
861.975	136.71
862.265	207.49
862.554	166.41
862.844	132.78
863.133	122.19
863.422	125.68
863.712	89.62
864.001	68.27
864.29	64.96
864.579	61.06
864.868	65.6
865.157	63.68
865.446	49.31
865.735	49.72
866.024	42.66
866.313	34.09
866.602	24.42
866.891	19.78
867.179	3.51
867.468	5.82
