Data from T2_Reflection__135__02-02-54-794.txt Node

Date: Fri Jun 04 02:02:54 CEST 2021
User: mabdelazizm
Spectrometer: FLMS18565
Trigger mode: 0
Integration Time (sec): 2.000000E0
Scans to average: 1
Electric dark correction enabled: true
Nonlinearity correction enabled: false
Boxcar width: 12
XAxis mode: Wavelengths
Number of Pixels in Spectrum: 2048
>>>>>Begin Spectral Data<<<<<
179.071	275.78
179.452	113.5
179.833	168.66
180.214	1400
180.595	125.81
180.977	135.47
181.358	410.2
181.739	-421.21
182.12	-45.34
182.501	16.17
182.882	16.89
183.262	26.63
183.643	21.71
184.024	26.75
184.405	30.51
184.786	41.92
185.166	46.16
185.547	35.79
185.927	30.19
186.308	26.49
186.689	30.49
187.069	17.3
187.449	23.76
187.83	27.62
188.21	26.71
188.59	33.75
188.971	36.11
189.351	39.23
189.731	39.3
190.111	43.38
190.491	40.32
190.871	40.51
191.251	43.75
191.631	41.48
192.011	36.13
192.391	35.86
192.771	41.27
193.151	42.06
193.531	40.99
193.91	41.12
194.29	40.15
194.67	39.29
195.049	40.74
195.429	42.01
195.808	45.18
196.188	44.2
196.567	48.05
196.946	50.75
197.326	46.33
197.705	48.84
198.084	47.39
198.464	44.07
198.843	43.29
199.222	42.87
199.601	41.71
199.98	43.91
200.359	44.48
200.738	44.45
201.117	44.1
201.496	42.4
201.875	41.78
202.254	34.67
202.632	33.47
203.011	33.91
203.39	32.74
203.768	33.03
204.147	32.3
204.525	29.4
204.904	26.78
205.282	27.73
205.661	27.99
206.039	26.03
206.418	23.91
206.796	23.92
207.174	24.59
207.552	26.22
207.931	26.03
208.309	24.76
208.687	24.47
209.065	23.38
209.443	22.57
209.821	19.77
210.199	18.61
210.577	19.59
210.954	21.4
211.332	21.52
211.71	23.85
212.088	24.11
212.465	25.77
212.843	25.96
213.221	22.67
213.598	25.49
213.976	28.08
214.353	28.79
214.731	27
215.108	26.08
215.485	25.92
215.863	23.89
216.24	21.14
216.617	19.05
216.994	18.81
217.371	18.82
217.749	20.23
218.126	18.46
218.503	18.6
218.88	18.79
219.256	19.45
219.633	18.05
220.01	17
220.387	16.11
220.764	15.14
221.14	14.74
221.517	14.97
221.894	12.52
222.27	12.06
222.647	12.62
223.023	11.08
223.4	9.85
223.776	8.02
224.153	8.16
224.529	8.22
224.905	8.37
225.282	8.87
225.658	9.8
226.034	9.21
226.41	8.31
226.786	8.3
227.162	7.64
227.538	7.32
227.914	6.57
228.29	5.92
228.666	5.53
229.042	5.49
229.418	5.25
229.793	5.32
230.169	5.13
230.545	4.67
230.92	4.34
231.296	4.52
231.672	4.33
232.047	4.06
232.422	4.16
232.798	4.02
233.173	4.13
233.549	4.07
233.924	3.85
234.299	3.95
234.674	3.79
235.05	3.79
235.425	3.61
235.8	3.45
236.175	3.28
236.55	3.15
236.925	3.24
237.3	3.18
237.675	3.07
238.049	3.08
238.424	3.13
238.799	3.08
239.174	3.02
239.548	3.06
239.923	2.98
240.297	2.91
240.672	2.99
241.046	2.98
241.421	3.04
241.795	2.91
242.17	2.99
242.544	2.9
242.918	2.85
243.293	2.78
243.667	2.72
244.041	2.68
244.415	2.63
244.789	2.79
245.163	2.87
245.537	2.9
245.911	2.84
246.285	2.76
246.659	2.77
247.033	2.8
247.406	2.81
247.78	2.73
248.154	2.65
248.528	2.73
248.901	2.75
249.275	2.74
249.648	2.73
250.022	2.58
250.395	2.6
250.769	2.56
251.142	2.56
251.515	2.52
251.888	2.6
252.262	2.58
252.635	2.6
253.008	2.55
253.381	2.44
253.754	2.38
254.127	2.37
254.5	2.32
254.873	2.26
255.246	2.27
255.619	2.29
255.992	2.33
256.364	2.3
256.737	2.23
257.11	2.16
257.483	2.08
257.855	1.95
258.228	1.89
258.6	1.95
258.973	1.9
259.345	1.95
259.718	1.83
260.09	1.83
260.462	1.74
260.834	1.69
261.207	1.61
261.579	1.55
261.951	1.54
262.323	1.44
262.695	1.46
263.067	1.44
263.439	1.38
263.811	1.38
264.183	1.38
264.555	1.39
264.927	1.35
265.298	1.35
265.67	1.3
266.042	1.33
266.413	1.34
266.785	1.4
267.156	1.43
267.528	1.34
267.899	1.26
268.271	1.26
268.642	1.25
269.013	1.32
269.385	1.29
269.756	1.3
270.127	1.33
270.498	1.37
270.87	1.29
271.241	1.24
271.612	1.26
271.983	1.29
272.354	1.29
272.724	1.26
273.095	1.26
273.466	1.21
273.837	1.15
274.208	1.18
274.578	1.1
274.949	1.05
275.32	0.98
275.69	1.02
276.061	1.07
276.431	1.03
276.802	1.16
277.172	1.21
277.542	1.1
277.913	1.06
278.283	1.05
278.653	1.05
279.023	1.1
279.394	1.09
279.764	1.1
280.134	1.17
280.504	1.2
280.874	1.24
281.244	1.27
281.614	1.3
281.983	1.3
282.353	1.26
282.723	1.3
283.093	1.27
283.462	1.25
283.832	1.28
284.202	1.35
284.571	1.37
284.941	1.41
285.31	1.47
285.68	1.5
286.049	1.45
286.418	1.4
286.788	1.65
287.157	1.73
287.526	1.74
287.895	1.69
288.264	1.71
288.633	1.68
289.002	1.64
289.371	1.64
289.74	1.61
290.109	1.55
290.478	1.48
290.847	1.46
291.216	1.45
291.585	1.39
291.953	1.41
292.322	1.57
292.691	1.57
293.059	1.53
293.428	1.49
293.796	1.45
294.165	1.41
294.533	1.37
294.901	1.41
295.27	1.37
295.638	1.39
296.006	1.24
296.374	1.15
296.743	1.1
297.111	1.17
297.479	1.07
297.847	1.05
298.215	0.99
298.583	0.92
298.95	0.91
299.318	0.93
299.686	0.88
300.054	0.85
300.422	0.87
300.789	0.98
301.157	0.93
301.525	0.79
301.892	0.84
302.26	0.83
302.627	0.9
302.994	0.91
303.362	0.91
303.729	0.9
304.097	0.8
304.464	0.82
304.831	0.86
305.198	0.87
305.565	0.83
305.932	0.81
306.299	0.75
306.666	0.82
307.033	0.88
307.4	0.97
307.767	0.96
308.134	0.99
308.501	0.94
308.867	0.92
309.234	0.91
309.601	0.9
309.967	0.83
310.334	0.78
310.701	0.77
311.067	0.68
311.433	0.71
311.8	0.73
312.166	0.69
312.533	0.7
312.899	0.7
313.265	0.73
313.631	0.68
313.997	0.61
314.363	0.54
314.729	0.59
315.096	0.64
315.461	0.67
315.827	0.57
316.193	0.51
316.559	0.41
316.925	0.5
317.291	0.46
317.656	0.54
318.022	0.62
318.388	0.55
318.753	0.53
319.119	0.53
319.484	0.59
319.85	0.53
320.215	0.59
320.581	0.6
320.946	0.57
321.311	0.65
321.676	0.55
322.042	0.53
322.407	0.46
322.772	0.45
323.137	0.45
323.502	0.5
323.867	0.57
324.232	0.52
324.597	0.5
324.962	0.57
325.327	0.62
325.691	0.74
326.056	0.69
326.421	0.74
326.785	0.73
327.15	0.75
327.514	0.87
327.879	0.93
328.243	0.98
328.608	1.05
328.972	1.14
329.337	1.03
329.701	1.01
330.065	1.04
330.429	0.99
330.794	1.01
331.158	1.11
331.522	1.19
331.886	1.28
332.25	1.31
332.614	1.29
332.978	1.21
333.342	1.26
333.705	1.28
334.069	1.26
334.433	1.22
334.797	1.13
335.16	1.1
335.524	1.1
335.887	1
336.251	0.89
336.614	0.84
336.978	0.76
337.341	0.74
337.705	0.66
338.068	0.68
338.431	0.74
338.794	0.7
339.158	0.63
339.521	0.62
339.884	0.64
340.247	0.43
340.61	0.42
340.973	0.28
341.336	0.24
341.699	0.22
342.062	0.2
342.424	0.11
342.787	0.08
343.15	0.05
343.512	0.1
343.875	0.17
344.238	0.18
344.6	0.11
344.963	0.23
345.325	0.28
345.688	0.34
346.05	0.28
346.412	0.33
346.775	0.36
347.137	0.35
347.499	0.39
347.861	0.45
348.223	0.46
348.585	0.49
348.947	0.49
349.309	0.52
349.671	0.46
350.033	0.64
350.395	0.62
350.757	0.69
351.118	0.69
351.48	0.8
351.842	0.75
352.203	0.85
352.565	0.76
352.927	0.69
353.288	0.73
353.65	0.65
354.011	0.59
354.372	0.6
354.734	0.53
355.095	0.69
355.456	0.63
355.817	0.57
356.179	0.52
356.54	0.47
356.901	0.42
357.262	0.44
357.623	0.39
357.984	0.42
358.345	0.55
358.705	0.63
359.066	0.52
359.427	0.7
359.788	0.74
360.148	0.75
360.509	0.68
360.87	0.71
361.23	0.74
361.591	0.79
361.951	0.92
362.312	0.99
362.672	1.13
363.032	1.16
363.393	1.11
363.753	1.08
364.113	1.07
364.473	1.12
364.833	1.1
365.193	1.15
365.553	1.16
365.913	1.13
366.273	1.12
366.633	1.16
366.993	1.2
367.353	1.08
367.713	1
368.072	1.07
368.432	0.92
368.792	0.82
369.151	0.81
369.511	0.81
369.87	0.84
370.23	0.81
370.589	0.82
370.949	0.69
371.308	0.61
371.667	0.63
372.027	0.67
372.386	0.72
372.745	0.82
373.104	0.76
373.463	0.74
373.822	0.77
374.181	0.82
374.54	0.88
374.899	0.98
375.258	0.9
375.617	0.94
375.975	1
376.334	1.13
376.693	1.29
377.052	1.24
377.41	1.35
377.769	1.38
378.127	1.5
378.486	1.49
378.844	1.58
379.202	1.59
379.561	1.55
379.919	1.54
380.277	1.56
380.636	1.56
380.994	1.63
381.352	1.72
381.71	1.78
382.068	1.79
382.426	1.84
382.784	2
383.142	2
383.5	2.01
383.857	2.07
384.215	2.25
384.573	2.39
384.931	2.42
385.288	2.45
385.646	2.45
386.003	2.58
386.361	2.63
386.718	2.67
387.076	2.77
387.433	2.92
387.791	3
388.148	3.08
388.505	3.29
388.862	3.48
389.22	3.66
389.577	3.85
389.934	3.97
390.291	4.15
390.648	4.35
391.005	4.75
391.362	4.98
391.718	5.19
392.075	5.32
392.432	5.58
392.789	5.76
393.145	6.06
393.502	6.27
393.859	6.48
394.215	6.75
394.572	7.06
394.928	7.39
395.285	7.65
395.641	8.1
395.997	8.45
396.354	8.86
396.71	9.31
397.066	9.66
397.422	10.16
397.778	10.64
398.134	11.12
398.491	11.49
398.846	11.92
399.202	12.43
399.558	12.86
399.914	13.1
400.27	13.57
400.626	14.01
400.981	14.65
401.337	15.15
401.693	15.74
402.048	16.2
402.404	16.78
402.759	17.45
403.115	18.09
403.47	18.75
403.826	19.45
404.181	20.07
404.536	20.75
404.892	21.26
405.247	21.93
405.602	22.61
405.957	23.3
406.312	23.93
406.667	24.52
407.022	25.18
407.377	25.91
407.732	26.63
408.087	27.3
408.442	28.07
408.796	28.98
409.151	29.67
409.506	30.42
409.86	31.15
410.215	31.95
410.57	32.69
410.924	33.46
411.279	34.26
411.633	35.05
411.987	35.77
412.342	36.52
412.696	37.23
413.05	37.98
413.404	38.6
413.758	39.38
414.113	40.05
414.467	40.6
414.821	41.3
415.175	42.03
415.529	42.81
415.882	43.47
416.236	44.05
416.59	44.63
416.944	45.28
417.298	45.95
417.651	46.4
418.005	47.02
418.358	47.6
418.712	48.18
419.065	48.79
419.419	49.24
419.772	49.75
420.126	50.16
420.479	50.65
420.832	50.92
421.185	51.17
421.539	51.5
421.892	51.88
422.245	52.3
422.598	52.61
422.951	53.09
423.304	53.42
423.657	53.84
424.01	54.23
424.363	54.6
424.715	54.91
425.068	55.43
425.421	55.84
425.773	56.12
426.126	56.38
426.479	56.8
426.831	57.01
427.184	57.13
427.536	57.26
427.889	57.53
428.241	57.91
428.593	58.08
428.945	58.41
429.298	58.61
429.65	59.05
430.002	59.51
430.354	59.67
430.706	60.06
431.058	60.32
431.41	60.68
431.762	60.78
432.114	61
432.466	61.17
432.817	61.37
433.169	61.54
433.521	61.85
433.872	61.98
434.224	62.21
434.576	62.36
434.927	62.62
435.279	62.75
435.63	62.98
435.981	63.35
436.333	63.55
436.684	63.71
437.035	63.65
437.387	63.81
437.738	63.71
438.089	63.71
438.44	63.85
438.791	63.85
439.142	64.12
439.493	64.24
439.844	64.16
440.195	64.22
440.545	64.34
440.896	64.51
441.247	64.62
441.598	64.48
441.948	64.39
442.299	64.35
442.649	64.26
443	64.34
443.35	64.34
443.701	64.12
444.051	64.2
444.401	64.31
444.752	64.24
445.102	64.21
445.452	64.04
445.802	64.18
446.152	64.37
446.502	64.58
446.852	64.67
447.202	64.64
447.552	64.68
447.902	64.65
448.252	64.55
448.602	63.79
448.952	63.89
449.301	63.94
449.651	64.04
450.001	63.99
450.35	64.25
450.7	64.37
451.049	64.49
451.399	64.59
451.748	64.56
452.097	64.65
452.447	64.76
452.796	64.79
453.145	64.73
453.494	64.87
453.843	64.73
454.193	64.86
454.542	65.03
454.891	64.84
455.239	64.74
455.588	64.58
455.937	64.7
456.286	64.63
456.635	64.63
456.984	64.74
457.332	65.7
457.681	65.66
458.03	65.43
458.378	65.29
458.727	65.46
459.075	65.13
459.423	65.13
459.772	65.08
460.12	65.01
460.468	64.85
460.817	64.77
461.165	64.67
461.513	64.52
461.861	64.61
462.209	64.49
462.557	64.69
462.905	64.7
463.253	64.47
463.601	64.45
463.949	64.41
464.297	64.42
464.644	64.15
464.992	64.11
465.34	64
465.687	63.99
466.035	63.95
466.383	63.78
466.73	63.96
467.078	64.14
467.425	63.9
467.772	64.01
468.12	63.91
468.467	63.79
468.814	63.88
469.161	63.97
469.508	63.98
469.856	63.97
470.203	63.89
470.55	63.79
470.897	63.63
471.243	63.74
471.59	63.54
471.937	63.54
472.284	63.54
472.631	63.38
472.977	63.22
473.324	63.23
473.671	62.98
474.017	62.68
474.364	62.38
474.71	62.18
475.057	62.04
475.403	61.81
475.749	61.51
476.096	61.48
476.442	61.43
476.788	61.32
477.134	61.11
477.48	60.89
477.826	60.7
478.172	60.57
478.518	60.49
478.864	60.36
479.21	60.22
479.556	59.97
479.902	59.72
480.248	59.63
480.593	59.43
480.939	59.3
481.285	59.28
481.63	59.23
481.976	58.98
482.321	58.96
482.667	59.05
483.012	59.03
483.357	58.99
483.703	58.85
484.048	58.78
484.393	58.55
484.738	58.41
485.084	58.25
485.429	58.19
485.774	58.25
486.119	58.2
486.464	58.06
486.808	57.92
487.153	57.64
487.498	57.5
487.843	57.34
488.188	57.3
488.532	57.27
488.877	57.12
489.222	57.04
489.566	56.87
489.911	56.81
490.255	56.76
490.6	56.7
490.944	56.51
491.288	56.29
491.633	56.12
491.977	55.84
492.321	55.8
492.665	55.62
493.009	55.58
493.353	55.27
493.697	55.1
494.041	54.89
494.385	54.63
494.729	54.55
495.073	54.36
495.417	54.24
495.76	54.15
496.104	54.02
496.448	53.98
496.791	53.88
497.135	53.54
497.479	53.42
497.822	53.26
498.165	53.06
498.509	52.81
498.852	52.58
499.196	52.5
499.539	52.44
499.882	52.27
500.225	52.08
500.568	52.02
500.911	51.92
501.254	51.83
501.597	51.72
501.94	51.79
502.283	51.69
502.626	51.64
502.969	51.46
503.312	51.22
503.654	51.11
503.997	50.93
504.34	50.86
504.682	50.75
505.025	50.56
505.367	50.41
505.71	50.19
506.052	49.95
506.395	49.73
506.737	49.71
507.079	49.49
507.421	49.32
507.764	49.2
508.106	49.12
508.448	49.11
508.79	48.95
509.132	48.93
509.474	48.73
509.816	48.49
510.158	48.29
510.499	48.12
510.841	47.92
511.183	47.68
511.525	47.55
511.866	47.56
512.208	47.5
512.549	47.44
512.891	47.31
513.232	47.28
513.574	47.05
513.915	46.84
514.256	46.88
514.598	46.92
514.939	46.81
515.28	46.53
515.621	46.54
515.962	46.42
516.303	46.29
516.644	46.09
516.985	45.91
517.326	45.81
517.667	45.63
518.008	45.48
518.349	45.49
518.69	45.54
519.03	45.4
519.371	45.4
519.712	45.26
520.052	45.21
520.393	44.98
520.733	44.82
521.074	44.6
521.414	44.38
521.754	44.08
522.095	44.04
522.435	44.09
522.775	43.98
523.115	43.81
523.455	43.67
523.795	43.61
524.135	43.44
524.475	43.35
524.815	43.07
525.155	42.91
525.495	42.73
525.835	42.67
526.175	42.6
526.514	42.64
526.854	42.48
527.194	42.38
527.533	42.26
527.873	42.15
528.212	42
528.552	41.92
528.891	41.85
529.23	41.79
529.57	41.74
529.909	41.56
530.248	41.44
530.587	41.32
530.927	41.15
531.266	41.09
531.605	40.86
531.944	40.8
532.283	40.75
532.621	40.64
532.96	40.64
533.299	40.7
533.638	40.6
533.977	40.58
534.315	40.36
534.654	40.19
534.992	40
535.331	39.85
535.67	39.56
536.008	39.42
536.346	39.17
536.685	39.07
537.023	38.89
537.361	38.77
537.7	38.58
538.038	38.47
538.376	38.47
538.714	38.41
539.052	38.44
539.39	38.41
539.728	38.15
540.066	38.11
540.404	38.17
540.741	37.93
541.079	37.88
541.417	37.78
541.755	37.52
542.092	37.56
542.43	37.5
542.767	37.32
543.105	37.26
543.442	37.2
543.78	37.26
544.117	37.23
544.454	37.2
544.792	37.19
545.129	37.11
545.466	37.11
545.803	37.13
546.14	37.02
546.477	36.94
546.814	36.93
547.151	36.96
547.488	36.94
547.825	36.82
548.162	36.92
548.499	36.94
548.835	36.76
549.172	36.7
549.509	36.52
549.845	36.31
550.182	36.2
550.518	36.19
550.855	36.18
551.191	36.38
551.528	36.41
551.864	36.37
552.2	36.2
552.537	36.13
552.873	36.12
553.209	36.13
553.545	36.31
553.881	36.32
554.217	36.23
554.553	36.35
554.889	36.31
555.225	36.42
555.561	36.36
555.896	36.19
556.232	36.14
556.568	36.13
556.903	36.08
557.239	36.06
557.575	36.4
557.91	36.51
558.245	36.79
558.581	37.09
558.916	36.89
559.252	36.88
559.587	36.8
559.922	36.83
560.257	36.81
560.592	36.95
560.928	36.94
561.263	37.02
561.598	37
561.933	36.93
562.267	37.04
562.602	37
562.937	37.02
563.272	37.12
563.607	36.9
563.941	36.97
564.276	36.97
564.611	37.03
564.945	36.96
565.28	36.94
565.614	37.03
565.949	36.95
566.283	36.98
566.617	36.83
566.951	36.9
567.286	37.14
567.62	37.14
567.954	37.31
568.288	37.38
568.622	37.46
568.956	37.51
569.29	37.75
569.624	37.77
569.958	37.86
570.292	37.83
570.626	37.74
570.959	37.81
571.293	37.87
571.627	37.95
571.96	38.21
572.294	38.21
572.627	38.38
572.961	38.5
573.294	38.6
573.627	38.76
573.961	38.76
574.294	38.79
574.627	38.94
574.961	39.05
575.294	38.94
575.627	38.8
575.96	38.81
576.293	38.71
576.626	38.67
576.959	38.74
577.292	38.73
577.624	38.71
577.957	38.67
578.29	38.73
578.623	38.74
578.955	38.85
579.288	38.92
579.62	38.93
579.953	39.04
580.285	39.06
580.618	39.13
580.95	39.06
581.282	39.04
581.615	39.06
581.947	39.08
582.279	39.25
582.611	39.28
582.943	39.25
583.275	39.25
583.607	39.45
583.939	39.66
584.271	39.82
584.603	39.91
584.935	40
585.267	40
585.598	40.01
585.93	40.04
586.262	40.26
586.593	40.29
586.925	40.5
587.256	40.61
587.588	40.7
587.919	40.79
588.25	40.76
588.582	40.73
588.913	40.8
589.244	41.02
589.575	41.09
589.907	41.23
590.238	41.42
590.569	41.39
590.9	41.67
591.231	41.77
591.562	41.81
591.892	41.8
592.223	41.94
592.554	42.05
592.885	42.18
593.215	42.38
593.546	42.5
593.877	42.5
594.207	42.6
594.538	42.58
594.868	42.73
595.198	42.86
595.529	42.92
595.859	42.9
596.189	43.05
596.52	43.24
596.85	43.35
597.18	43.56
597.51	43.61
597.84	43.76
598.17	43.84
598.5	43.95
598.83	44.26
599.16	44.4
599.489	44.51
599.819	44.95
600.149	45.19
600.479	45.51
600.808	45.63
601.138	45.78
601.467	45.91
601.797	46.18
602.126	46.62
602.456	47.01
602.785	47.34
603.114	47.63
603.443	47.96
603.773	48.24
604.102	48.77
604.431	49.07
604.76	49.25
605.089	49.53
605.418	49.73
605.747	50.06
606.076	50.28
606.405	50.61
606.733	50.74
607.062	50.92
607.391	50.98
607.72	51.3
608.048	51.3
608.377	51.55
608.705	51.69
609.034	52.03
609.362	52.52
609.69	52.95
610.019	53.35
610.347	53.63
610.675	53.59
611.004	53.67
611.332	53.9
611.66	54
611.988	54.2
612.316	54.03
612.644	54.11
612.972	54.24
613.3	54.49
613.627	54.6
613.955	54.85
614.283	55.17
614.611	55.3
614.938	55.39
615.266	55.51
615.593	55.8
615.921	56.12
616.248	56.43
616.576	56.95
616.903	57.5
617.23	57.69
617.558	58.03
617.885	58.19
618.212	58.53
618.539	59.07
618.866	59.48
619.193	59.89
619.52	59.88
619.847	60.27
620.174	60.81
620.501	61.27
620.828	61.52
621.155	61.74
621.481	61.72
621.808	62.31
622.135	62.54
622.461	62.78
622.788	62.89
623.114	63.32
623.441	63.48
623.767	63.86
624.093	63.97
624.42	64.38
624.746	64.89
625.072	64.77
625.398	65.36
625.725	65.52
626.051	65.93
626.377	66.07
626.703	66
627.029	66.35
627.354	66.69
627.68	67.12
628.006	67.28
628.332	67.15
628.658	67.49
628.983	67.99
629.309	68.26
629.634	68.71
629.96	68.67
630.285	68.76
630.611	68.87
630.936	69.5
631.262	69.72
631.587	70.15
631.912	70.21
632.237	70.82
632.562	71.54
632.887	71.12
633.213	71.11
633.538	71.69
633.863	72.07
634.187	71.91
634.512	71.46
634.837	71.11
635.162	70.98
635.487	70.57
635.811	70.79
636.136	70.45
636.461	70.25
636.785	70.19
637.11	70.4
637.434	70.4
637.758	71.06
638.083	71.14
638.407	71.08
638.731	71.32
639.056	71.3
639.38	71.27
639.704	71.34
640.028	71.51
640.352	71.44
640.676	70.23
641	70.53
641.324	70.65
641.648	69.53
641.972	69.53
642.295	70.57
642.619	70.82
642.943	70.95
643.266	70.88
643.59	71.83
643.913	71.46
644.237	71.61
644.56	72.02
644.884	72.69
645.207	72.38
645.53	72.6
645.854	72.38
646.177	72.18
646.5	72.25
646.823	71.96
647.146	72.07
647.469	72.02
647.792	72.52
648.115	72.22
648.438	72.69
648.761	75.35
649.084	76.07
649.406	76.49
649.729	75.37
650.052	75.05
650.374	74.98
650.697	75.14
651.019	75.29
651.342	75.55
651.664	75.41
651.987	75.6
652.309	75.79
652.631	75.8
652.953	75.65
653.276	75.66
653.598	75.9
653.92	75.71
654.242	75.95
654.564	75.93
654.886	76.18
655.208	76.12
655.53	76.05
655.851	75.86
656.173	76.04
656.495	76.3
656.816	75.34
657.138	74.65
657.46	73.94
657.781	76.45
658.103	78.54
658.424	79.09
658.746	79.49
659.067	79.61
659.388	78.63
659.709	78.79
660.031	78.34
660.352	78.33
660.673	78.03
660.994	78.02
661.315	77.92
661.636	77.46
661.957	78.04
662.278	77.97
662.599	77.91
662.919	77.29
663.24	77.45
663.561	78.58
663.881	79.1
664.202	79.18
664.523	77.27
664.843	77.79
665.164	77.1
665.484	77.08
665.804	76.16
666.125	74.98
666.445	74.14
666.765	74.44
667.085	74.43
667.405	75.18
667.726	75.16
668.046	75.64
668.366	76.17
668.686	77.04
669.005	76.28
669.325	76.62
669.645	76.62
669.965	76.73
670.285	75.28
670.604	75.5
670.924	75.17
671.243	76.46
671.563	75.68
671.882	75.62
672.202	75.51
672.521	75.63
672.841	75.79
673.16	76.2
673.479	76.01
673.798	75.66
674.117	76
674.437	75.71
674.756	75.71
675.075	76.25
675.394	76.53
675.713	77.55
676.031	77.26
676.35	76.88
676.669	76.32
676.988	77.2
677.306	76.75
677.625	76.9
677.944	77.24
678.262	77.84
678.581	77.8
678.899	78.4
679.218	77.47
679.536	78.52
679.854	78.68
680.172	78.9
680.491	80.02
680.809	79.87
681.127	80.46
681.445	80.26
681.763	80.96
682.081	80.16
682.399	81.23
682.717	80.31
683.035	80.1
683.352	79.88
683.67	79.38
683.988	79.88
684.306	80.23
684.623	80.36
684.941	80.16
685.258	80.61
685.576	80.4
685.893	79.78
686.211	80.69
686.528	81.86
686.845	81.43
687.162	80.77
687.48	80.56
687.797	80.89
688.114	81.3
688.431	80.74
688.748	80.83
689.065	80.06
689.382	80.17
689.699	80.73
690.015	81.76
690.332	80.96
690.649	82.05
690.966	81.08
691.282	82.01
691.599	82.29
691.915	81.91
692.232	82.22
692.548	81.77
692.865	82.61
693.181	83.25
693.497	83.62
693.813	83.7
694.13	82.3
694.446	81.73
694.762	83.01
695.078	84.77
695.394	85.16
695.71	83.81
696.026	83.48
696.342	83.47
696.658	83.55
696.973	82.94
697.289	83.55
697.605	82.67
697.92	82.48
698.236	82.66
698.551	81.79
698.867	83.18
699.182	82.57
699.498	82.52
699.813	83.18
700.128	82.47
700.444	83.72
700.759	83.61
701.074	83.35
701.389	82.52
701.704	82.37
702.019	82.78
702.334	82.41
702.649	81.37
702.964	80.92
703.279	81.14
703.594	81.21
703.908	80.34
704.223	81.03
704.538	80.91
704.852	83.2
705.167	82.73
705.481	82.2
705.796	81.9
706.11	81.86
706.425	82.69
706.739	81.61
707.053	80.7
707.368	80.42
707.682	79.59
707.996	78.31
708.31	77.81
708.624	77.35
708.938	77.04
709.252	77.58
709.566	77.39
709.88	77.82
710.193	77.22
710.507	76.51
710.821	75.87
711.135	74.48
711.448	75.61
711.762	76.9
712.075	75.53
712.389	75.49
712.702	73.26
713.015	74.33
713.329	73.72
713.642	73.78
713.955	74.8
714.269	74.86
714.582	76.02
714.895	77.29
715.208	78.26
715.521	77.01
715.834	79.78
716.147	79.5
716.459	80.72
716.772	80.48
717.085	80.58
717.398	80.82
717.71	80.93
718.023	80.91
718.336	81.22
718.648	81.18
718.961	82.41
719.273	82.69
719.585	82.76
719.898	83
720.21	85.36
720.522	87.7
720.834	84.75
721.147	86.66
721.459	87.99
721.771	86.97
722.083	84.76
722.395	84.41
722.707	83.23
723.019	81.5
723.33	83.21
723.642	84.2
723.954	84.12
724.265	84.21
724.577	84.78
724.889	84.61
725.2	84.72
725.512	85.68
725.823	87.28
726.135	87.69
726.446	88.15
726.757	87.13
727.068	87.16
727.38	87.19
727.691	86.38
728.002	84.75
728.313	84.27
728.624	85.31
728.935	84.32
729.246	84.06
729.557	84.22
729.867	86.09
730.178	86.14
730.489	86.47
730.8	86.69
731.11	87.19
731.421	86.15
731.731	87.86
732.042	87.32
732.352	87.54
732.663	88.38
732.973	89.33
733.283	88.46
733.594	88.29
733.904	88.36
734.214	87.75
734.524	88.74
734.834	89.18
735.144	90.71
735.454	92.49
735.764	92.71
736.074	93.1
736.384	93.48
736.694	93.78
737.003	92.39
737.313	92.58
737.623	92.15
737.932	91.59
738.242	92.11
738.551	92.17
738.861	90.95
739.17	88.98
739.479	86.49
739.789	87.02
740.098	86.07
740.407	85.72
740.716	84.5
741.025	84.34
741.334	83.82
741.643	86.64
741.952	89.93
742.261	88.57
742.57	87.37
742.879	83.33
743.188	82.69
743.497	82.66
743.805	80.95
744.114	81.68
744.422	85.85
744.731	87.71
745.04	88.06
745.348	88.51
745.656	89.85
745.965	87.17
746.273	89.24
746.581	90.88
746.889	90.08
747.198	90.54
747.506	89.34
747.814	90.12
748.122	88.92
748.43	88.69
748.738	86.67
749.046	85.08
749.353	81.81
749.661	79.82
749.969	81.64
750.277	80.77
750.584	77.82
750.892	79.01
751.199	79.6
751.507	79.26
751.814	78.61
752.122	78.35
752.429	78.69
752.736	78.26
753.044	75.86
753.351	76.93
753.658	76.96
753.965	76.19
754.272	76.08
754.579	77.59
754.886	78.9
755.193	79.23
755.5	80.19
755.807	80.58
756.114	79.09
756.42	81.77
756.727	83.41
757.034	83.76
757.34	84.48
757.647	84.21
757.953	84.93
758.26	87.89
758.566	86.61
758.872	87.41
759.179	91.3
759.485	92.39
759.791	90.16
760.097	90
760.403	92.59
760.709	95.32
761.015	92.96
761.321	96.47
761.627	97.31
761.933	97.94
762.239	97.68
762.545	96.38
762.851	96.73
763.156	97.2
763.462	100.68
763.767	107.68
764.073	107.41
764.378	106.96
764.684	106.94
764.989	107.91
765.295	105.81
765.6	106.15
765.905	109.15
766.21	113.42
766.515	114.39
766.821	118.39
767.126	116.21
767.431	118.43
767.736	121.86
768.041	114.22
768.345	115.8
768.65	119.76
768.955	115.47
769.26	118.1
769.564	120.33
769.869	118.68
770.174	120.23
770.478	122.16
770.783	118.94
771.087	115.04
771.391	109.39
771.696	104.46
772	105.82
772.304	113.8
772.608	114.13
772.913	119.15
773.217	119.34
773.521	113.64
773.825	110.66
774.129	107.09
774.433	99.95
774.736	100.91
775.04	101.99
775.344	96.25
775.648	98.25
775.951	98.61
776.255	95.43
776.559	96.74
776.862	95.42
777.166	93.06
777.469	92.96
777.772	99.94
778.076	98.95
778.379	102.26
778.682	104.73
778.985	104.47
779.289	108.4
779.592	104.95
779.895	97.9
780.198	97.98
780.501	91.93
780.804	89.39
781.106	92.51
781.409	94.85
781.712	93.7
782.015	90.3
782.317	92.54
782.62	90.78
782.923	98.89
783.225	101.29
783.527	103.64
783.83	108.64
784.132	112.42
784.435	110.38
784.737	110.46
785.039	113.64
785.341	106.21
785.643	105.18
785.945	106.35
786.248	99.48
786.55	102.52
786.851	105.61
787.153	108.78
787.455	106.98
787.757	106.38
788.059	116.16
788.36	121.07
788.662	119.46
788.964	111.77
789.265	110.92
789.567	114.55
789.868	108.6
790.17	112.81
790.471	102.93
790.772	96.88
791.074	90.83
791.375	86.78
791.676	79.98
791.977	77.45
792.278	85.01
792.579	83.46
792.88	79.65
793.181	83.06
793.482	78.55
793.783	78.48
794.083	73.8
794.384	74.24
794.685	71.22
794.986	69.16
795.286	65.14
795.587	58.69
795.887	57.4
796.188	57.09
796.488	57.3
796.788	61.61
797.089	65.05
797.389	67.67
797.689	63.33
797.989	61.65
798.289	61.89
798.589	65.16
798.889	58.72
799.189	62.12
799.489	59.11
799.789	42.16
800.089	36.11
800.389	40.63
800.688	33.2
800.988	27.45
801.288	23.89
801.587	25.33
801.887	22.75
802.186	26.88
802.486	18.96
802.785	11.56
803.085	32.04
803.384	39.21
803.683	37.45
803.982	24.62
804.281	-14.45
804.58	-38.21
804.879	-22.11
805.178	-23.73
805.477	-69.47
805.776	-7.81
806.075	-28.6
806.374	3.36
806.673	49.92
806.971	53.8
807.27	78.34
807.569	116.96
807.867	159.56
808.166	222.08
808.464	317.38
808.763	327.5
809.061	243.78
809.359	267.41
809.658	185.11
809.956	403.45
810.254	295.2
810.552	332.38
810.85	368.76
811.148	472.76
811.446	439.57
811.744	310.72
812.042	319.93
812.34	294.67
812.638	271.18
812.935	291.98
813.233	273.19
813.531	344.27
813.828	254.2
814.126	285.24
814.423	302.15
814.721	400.06
815.018	344.41
815.316	321.58
815.613	417.57
815.91	463.35
816.207	404.53
816.504	311.69
816.802	347.43
817.099	509.56
817.396	369.77
817.693	373.19
817.99	415.5
818.286	587.57
818.583	439.14
818.88	446.04
819.177	554.36
819.473	348.64
819.77	261.29
820.067	209.74
820.363	154.45
820.66	130.52
820.956	142.06
821.252	143.93
821.549	145.12
821.845	106.8
822.141	88.77
822.437	87.17
822.734	94.47
823.03	90.84
823.326	89.99
823.622	89.78
823.918	102.34
824.213	136.56
824.509	150.37
824.805	155.37
825.101	157.56
825.397	134.13
825.692	104.6
825.988	143.63
826.283	124.39
826.579	142.94
826.874	175.4
827.17	179.79
827.465	170.44
827.76	321.79
828.056	476.77
828.351	286.31
828.646	283.88
828.941	250.7
829.236	315.8
829.531	458.34
829.826	293.98
830.121	218.83
830.416	192.57
830.711	168.64
831.006	150.27
831.3	176.2
831.595	151
831.89	122.52
832.184	152.72
832.479	152.45
832.773	156.81
833.068	153.28
833.362	122.71
833.656	170.61
833.951	142.71
834.245	130.95
834.539	138.9
834.833	166.91
835.127	106.69
835.421	107.89
835.715	113.22
836.009	163.27
836.303	198.9
836.597	196.92
836.891	199.76
837.185	254.71
837.478	627.91
837.772	401.72
838.066	400.09
838.359	523.53
838.653	336.42
838.946	328.07
839.24	322.6
839.533	224.81
839.826	180.68
840.119	176.05
840.413	207.37
840.706	210.63
840.999	159.38
841.292	150.04
841.585	150.86
841.878	140.68
842.171	146.42
842.464	175.33
842.757	213.24
843.049	254.39
843.342	187.18
843.635	149.57
843.927	158.14
844.22	152.64
844.513	155.58
844.805	153.33
845.098	143.42
845.39	145.85
845.682	146.84
845.975	150.48
846.267	150.75
846.559	124.34
846.851	123.15
847.143	145.97
847.435	166.84
847.727	172.11
848.019	180.79
848.311	166.07
848.603	148.15
848.895	153.41
849.186	157.02
849.478	158.49
849.77	147.61
850.061	146.55
850.353	152.94
850.645	150.03
850.936	150.56
851.227	146.14
851.519	161.62
851.81	145.58
852.101	130.88
852.393	142.07
852.684	130.32
852.975	119.55
853.266	117.57
853.557	109.08
853.848	130.39
854.139	148.68
854.43	141.51
854.72	123.61
855.011	117.55
855.302	134.64
855.593	141.92
855.883	174.95
856.174	147.4
856.464	145.43
856.755	147.58
857.045	125.13
857.336	92.47
857.626	85.03
857.916	84.88
858.206	108.66
858.497	160.2
858.787	110.08
859.077	104.38
859.367	126.4
859.657	96.51
859.947	105.34
860.237	135.61
860.527	121.6
860.816	132.54
861.106	118.29
861.396	106.08
861.685	131.95
861.975	152.37
862.265	181.45
862.554	137.68
862.844	135.64
863.133	132.57
863.422	147.54
863.712	139.22
864.001	113.16
864.29	136.47
864.579	165.4
864.868	149.43
865.157	146.29
865.446	127.21
865.735	103.64
866.024	108.66
866.313	120.77
866.602	120.28
866.891	137.28
867.179	146.74
867.468	120.43
