Data from T2_Reflection__148__02-12-44-774.txt Node

Date: Fri Jun 04 02:12:44 CEST 2021
User: mabdelazizm
Spectrometer: FLMS18565
Trigger mode: 0
Integration Time (sec): 2.000000E0
Scans to average: 1
Electric dark correction enabled: true
Nonlinearity correction enabled: false
Boxcar width: 12
XAxis mode: Wavelengths
Number of Pixels in Spectrum: 2048
>>>>>Begin Spectral Data<<<<<
179.071	-216.14
179.452	-154.43
179.833	-125.75
180.214	-2800
180.595	-40.86
180.977	-67.98
181.358	-583.67
181.739	-103.03
182.12	103.95
182.501	15.95
182.882	23.67
183.262	16.57
183.643	21.96
184.024	-20.18
184.405	-14.08
184.786	5.15
185.166	12.34
185.547	8.21
185.927	7.06
186.308	9.3
186.689	12.53
187.069	18.17
187.449	21.12
187.83	12.76
188.21	7.36
188.59	11.79
188.971	10.21
189.351	9.85
189.731	7.73
190.111	15.78
190.491	15.98
190.871	18.25
191.251	25.6
191.631	19.37
192.011	19.54
192.391	15.95
192.771	20.84
193.151	22.15
193.531	23.02
193.91	18.08
194.29	13.46
194.67	16.87
195.049	16.58
195.429	15.73
195.808	19.77
196.188	16.04
196.567	13.76
196.946	12.56
197.326	13.23
197.705	12.34
198.084	14.02
198.464	9.66
198.843	10.5
199.222	10.95
199.601	7.96
199.98	8.17
200.359	7.94
200.738	8.74
201.117	10.76
201.496	8.99
201.875	7.67
202.254	4.25
202.632	2.37
203.011	5.7
203.39	6.44
203.768	7.06
204.147	4.84
204.525	5.4
204.904	5.63
205.282	2.43
205.661	3.68
206.039	3.26
206.418	3.69
206.796	4.68
207.174	9.51
207.552	10.57
207.931	11.74
208.309	9.97
208.687	8.64
209.065	9.95
209.443	10.28
209.821	10.61
210.199	7.85
210.577	7.48
210.954	10.47
211.332	11.97
211.71	11.86
212.088	10.23
212.465	10.31
212.843	12.07
213.221	8.85
213.598	10.57
213.976	10.87
214.353	11.29
214.731	11.74
215.108	11.23
215.485	13.19
215.863	11.82
216.24	9.48
216.617	7.31
216.994	7.35
217.371	7.91
217.749	9.23
218.126	9.56
218.503	8.14
218.88	7.03
219.256	7.24
219.633	7.68
220.01	7.32
220.387	7.54
220.764	8.26
221.14	9.23
221.517	10.02
221.894	8.8
222.27	8.03
222.647	8.8
223.023	8.54
223.4	8.65
223.776	8.38
224.153	8.36
224.529	8.4
224.905	7.65
225.282	7.84
225.658	8.77
226.034	8.57
226.41	7.76
226.786	7.75
227.162	7.43
227.538	7.65
227.914	7.43
228.29	7.24
228.666	6.34
229.042	6.55
229.418	6.5
229.793	6.51
230.169	6.52
230.545	5.99
230.92	6.05
231.296	6.19
231.672	6.26
232.047	6.35
232.422	6.27
232.798	5.98
233.173	6.04
233.549	6.1
233.924	6.18
234.299	6.32
234.674	6.4
235.05	6.3
235.425	6.28
235.8	6.25
236.175	6.23
236.55	6.26
236.925	6.16
237.3	6.29
237.675	6.39
238.049	6.48
238.424	6.31
238.799	6.11
239.174	5.99
239.548	6.01
239.923	6.09
240.297	6.02
240.672	5.96
241.046	6
241.421	5.93
241.795	5.92
242.17	5.9
242.544	5.75
242.918	5.85
243.293	5.75
243.667	5.74
244.041	5.61
244.415	5.56
244.789	5.54
245.163	5.58
245.537	5.65
245.911	5.54
246.285	5.56
246.659	5.54
247.033	5.52
247.406	5.57
247.78	5.56
248.154	5.56
248.528	5.6
248.901	5.56
249.275	5.53
249.648	5.53
250.022	5.55
250.395	5.44
250.769	5.44
251.142	5.47
251.515	5.45
251.888	5.6
252.262	5.51
252.635	5.55
253.008	5.55
253.381	5.55
253.754	5.54
254.127	5.52
254.5	5.47
254.873	5.46
255.246	5.58
255.619	5.62
255.992	5.63
256.364	5.6
256.737	5.54
257.11	5.53
257.483	5.49
257.855	5.45
258.228	5.44
258.6	5.45
258.973	5.47
259.345	5.45
259.718	5.43
260.09	5.44
260.462	5.35
260.834	5.41
261.207	5.36
261.579	5.4
261.951	5.37
262.323	5.31
262.695	5.29
263.067	5.26
263.439	5.32
263.811	5.31
264.183	5.2
264.555	5.22
264.927	5.19
265.298	5.23
265.67	5.2
266.042	5.18
266.413	5.12
266.785	5.2
267.156	5.27
267.528	5.24
267.899	5.18
268.271	5.17
268.642	5.12
269.013	5.23
269.385	5.16
269.756	5.16
270.127	5.1
270.498	5.06
270.87	5.04
271.241	4.98
271.612	4.87
271.983	4.88
272.354	4.88
272.724	4.83
273.095	4.86
273.466	4.89
273.837	4.82
274.208	4.73
274.578	4.58
274.949	4.55
275.32	4.56
275.69	4.59
276.061	4.56
276.431	4.5
276.802	4.54
277.172	4.6
277.542	4.48
277.913	4.5
278.283	4.45
278.653	4.44
279.023	4.47
279.394	4.44
279.764	4.43
280.134	4.43
280.504	4.51
280.874	4.59
281.244	4.52
281.614	4.56
281.983	4.49
282.353	4.46
282.723	4.47
283.093	4.44
283.462	4.48
283.832	4.51
284.202	4.54
284.571	4.49
284.941	4.49
285.31	4.56
285.68	4.57
286.049	4.57
286.418	4.48
286.788	4.59
287.157	4.6
287.526	4.48
287.895	4.49
288.264	4.45
288.633	4.41
289.002	4.41
289.371	4.37
289.74	4.32
290.109	4.3
290.478	4.34
290.847	4.28
291.216	4.25
291.585	4.23
291.953	4.16
292.322	4.21
292.691	4.22
293.059	4.22
293.428	4.19
293.796	4.26
294.165	4.22
294.533	4.16
294.901	4.19
295.27	4.12
295.638	4.2
296.006	4.07
296.374	4.08
296.743	4.13
297.111	4.19
297.479	4.16
297.847	4.17
298.215	4.1
298.583	4
298.95	3.93
299.318	3.96
299.686	3.93
300.054	3.9
300.422	3.89
300.789	3.88
301.157	3.87
301.525	3.74
301.892	3.71
302.26	3.77
302.627	3.74
302.994	3.66
303.362	3.7
303.729	3.69
304.097	3.58
304.464	3.54
304.831	3.5
305.198	3.54
305.565	3.45
305.932	3.39
306.299	3.32
306.666	3.35
307.033	3.37
307.4	3.37
307.767	3.37
308.134	3.43
308.501	3.37
308.867	3.32
309.234	3.38
309.601	3.35
309.967	3.31
310.334	3.32
310.701	3.3
311.067	3.29
311.433	3.22
311.8	3.28
312.166	3.26
312.533	3.26
312.899	3.24
313.265	3.23
313.631	3.28
313.997	3.22
314.363	3.22
314.729	3.19
315.096	3.23
315.461	3.21
315.827	3.09
316.193	3.06
316.559	3.03
316.925	3.08
317.291	3.03
317.656	3.05
318.022	3.11
318.388	3
318.753	3.05
319.119	3.1
319.484	3.12
319.85	3.12
320.215	3.04
320.581	3.04
320.946	3
321.311	2.99
321.676	2.9
322.042	2.9
322.407	2.86
322.772	2.71
323.137	2.71
323.502	2.67
323.867	2.77
324.232	2.75
324.597	2.8
324.962	2.93
325.327	2.94
325.691	3.02
326.056	2.97
326.421	3
326.785	2.99
327.15	3.04
327.514	2.99
327.879	3.02
328.243	3.07
328.608	3.07
328.972	3.12
329.337	3.13
329.701	3.04
330.065	3.07
330.429	3.02
330.794	3.03
331.158	3.09
331.522	3.2
331.886	3.28
332.25	3.27
332.614	3.23
332.978	3.14
333.342	3.21
333.705	3.21
334.069	3.18
334.433	3.12
334.797	3
335.16	3.02
335.524	2.91
335.887	2.92
336.251	2.8
336.614	2.9
336.978	2.8
337.341	2.71
337.705	2.63
338.068	2.61
338.431	2.64
338.794	2.61
339.158	2.56
339.521	2.6
339.884	2.63
340.247	2.47
340.61	2.39
340.973	2.37
341.336	2.35
341.699	2.4
342.062	2.4
342.424	2.27
342.787	2.23
343.15	2.14
343.512	2.22
343.875	2.23
344.238	2.2
344.6	2.17
344.963	2.19
345.325	2.16
345.688	2.17
346.05	2.2
346.412	2.2
346.775	2.28
347.137	2.25
347.499	2.28
347.861	2.38
348.223	2.47
348.585	2.51
348.947	2.4
349.309	2.4
349.671	2.39
350.033	2.44
350.395	2.44
350.757	2.51
351.118	2.51
351.48	2.61
351.842	2.62
352.203	2.66
352.565	2.58
352.927	2.63
353.288	2.58
353.65	2.62
354.011	2.58
354.372	2.61
354.734	2.63
355.095	2.69
355.456	2.69
355.817	2.62
356.179	2.67
356.54	2.61
356.901	2.59
357.262	2.53
357.623	2.47
357.984	2.54
358.345	2.68
358.705	2.7
359.066	2.64
359.427	2.72
359.788	2.66
360.148	2.64
360.509	2.53
360.87	2.53
361.23	2.51
361.591	2.56
361.951	2.7
362.312	2.87
362.672	2.88
363.032	2.84
363.393	2.85
363.753	2.75
364.113	2.78
364.473	2.8
364.833	2.77
365.193	2.7
365.553	2.72
365.913	2.64
366.273	2.66
366.633	2.66
366.993	2.71
367.353	2.57
367.713	2.53
368.072	2.56
368.432	2.43
368.792	2.41
369.151	2.43
369.511	2.47
369.87	2.42
370.23	2.44
370.589	2.51
370.949	2.36
371.308	2.26
371.667	2.31
372.027	2.31
372.386	2.32
372.745	2.38
373.104	2.33
373.463	2.29
373.822	2.34
374.181	2.35
374.54	2.33
374.899	2.44
375.258	2.44
375.617	2.54
375.975	2.51
376.334	2.58
376.693	2.73
377.052	2.74
377.41	2.87
377.769	2.89
378.127	2.86
378.486	2.93
378.844	3.04
379.202	3.06
379.561	2.92
379.919	2.87
380.277	2.91
380.636	2.93
380.994	2.96
381.352	3.01
381.71	2.97
382.068	3.03
382.426	3.01
382.784	3.04
383.142	3.08
383.5	3.14
383.857	3.13
384.215	3.12
384.573	3.2
384.931	3.22
385.288	3.17
385.646	3.15
386.003	3.13
386.361	3.11
386.718	3.12
387.076	3.14
387.433	3.01
387.791	2.94
388.148	2.98
388.505	3.15
388.862	3.25
389.22	3.24
389.577	3.21
389.934	3.27
390.291	3.35
390.648	3.43
391.005	3.5
391.362	3.64
391.718	3.73
392.075	3.81
392.432	3.89
392.789	4.03
393.145	4.17
393.502	4.16
393.859	4.25
394.215	4.39
394.572	4.48
394.928	4.58
395.285	4.69
395.641	4.91
395.997	5.12
396.354	5.38
396.71	5.68
397.066	5.84
397.422	6.02
397.778	6.26
398.134	6.61
398.491	6.85
398.846	7.1
399.202	7.39
399.558	7.61
399.914	7.79
400.27	8.05
400.626	8.25
400.981	8.52
401.337	8.84
401.693	9.13
402.048	9.36
402.404	9.71
402.759	10.08
403.115	10.44
403.47	10.88
403.826	11.36
404.181	11.8
404.536	12.12
404.892	12.42
405.247	12.89
405.602	13.26
405.957	13.73
406.312	14.1
406.667	14.5
407.022	14.97
407.377	15.54
407.732	16
408.087	16.37
408.442	16.87
408.796	17.46
409.151	17.97
409.506	18.59
409.86	19.06
410.215	19.51
410.57	20
410.924	20.5
411.279	20.98
411.633	21.51
411.987	22.14
412.342	22.63
412.696	23.12
413.05	23.63
413.404	24.18
413.758	24.8
414.113	25.23
414.467	25.58
414.821	26.07
415.175	26.71
415.529	27.27
415.882	27.69
416.236	28.05
416.59	28.44
416.944	28.93
417.298	29.37
417.651	29.69
418.005	30.11
418.358	30.55
418.712	31.05
419.065	31.58
419.419	31.93
419.772	32.33
420.126	32.71
420.479	32.94
420.832	33.23
421.185	33.45
421.539	33.72
421.892	33.97
422.245	34.24
422.598	34.45
422.951	34.77
423.304	35.11
423.657	35.27
424.01	35.47
424.363	35.59
424.715	35.86
425.068	36.17
425.421	36.44
425.773	36.61
426.126	37
426.479	37.29
426.831	37.41
427.184	37.47
427.536	37.63
427.889	37.7
428.241	37.95
428.593	38.16
428.945	38.33
429.298	38.63
429.65	38.81
430.002	39.02
430.354	39.17
430.706	39.45
431.058	39.64
431.41	39.88
431.762	40.09
432.114	40.31
432.466	40.53
432.817	40.78
433.169	41.1
433.521	41.16
433.872	41.27
434.224	41.38
434.576	41.53
434.927	41.57
435.279	41.67
435.63	41.96
435.981	42.17
436.333	42.31
436.684	42.37
437.035	42.39
437.387	42.39
437.738	42.29
438.089	42.27
438.44	42.25
438.791	42.31
439.142	42.4
439.493	42.42
439.844	42.5
440.195	42.5
440.545	42.49
440.896	42.59
441.247	42.66
441.598	42.48
441.948	42.43
442.299	42.56
442.649	42.64
443	42.68
443.35	42.7
443.701	42.73
444.051	42.76
444.401	42.84
444.752	42.84
445.102	42.77
445.452	42.78
445.802	42.77
446.152	43.02
446.502	43.16
446.852	43.21
447.202	43.3
447.552	43.41
447.902	43.44
448.252	43.44
448.602	43.99
448.952	44.11
449.301	44.25
449.651	44.25
450.001	44.22
450.35	44.31
450.7	44.25
451.049	44.12
451.399	44.25
451.748	44.36
452.097	44.42
452.447	44.36
452.796	44.5
453.145	44.39
453.494	44.48
453.843	44.37
454.193	44.57
454.542	44.76
454.891	44.57
455.239	44.59
455.588	44.58
455.937	44.59
456.286	44.57
456.635	44.49
456.984	44.56
457.332	43.91
457.681	43.78
458.03	43.64
458.378	43.57
458.727	43.65
459.075	43.47
459.423	43.6
459.772	43.58
460.12	43.34
460.468	43.21
460.817	43.11
461.165	42.97
461.513	42.77
461.861	42.76
462.209	42.59
462.557	42.8
462.905	42.56
463.253	42.38
463.601	42.34
463.949	42.27
464.297	42.13
464.644	41.96
464.992	41.86
465.34	41.93
465.687	41.78
466.035	41.65
466.383	41.66
466.73	41.61
467.078	41.51
467.425	41.3
467.772	41.55
468.12	41.26
468.467	41.1
468.814	41.34
469.161	41.3
469.508	41.2
469.856	41.15
470.203	41.08
470.55	40.95
470.897	40.8
471.243	40.66
471.59	40.47
471.937	40.29
472.284	40.21
472.631	40.07
472.977	40
473.324	39.94
473.671	39.63
474.017	39.29
474.364	39.07
474.71	38.93
475.057	38.7
475.403	38.49
475.749	38.26
476.096	38.17
476.442	37.87
476.788	37.81
477.134	37.68
477.48	37.29
477.826	37.13
478.172	37.08
478.518	36.99
478.864	36.77
479.21	36.5
479.556	36.3
479.902	36.08
480.248	36.01
480.593	35.97
480.939	35.84
481.285	35.73
481.63	35.59
481.976	35.5
482.321	35.46
482.667	35.42
483.012	35.34
483.357	35.3
483.703	35.18
484.048	35.1
484.393	34.98
484.738	34.9
485.084	34.86
485.429	34.81
485.774	34.72
486.119	34.63
486.464	34.51
486.808	34.29
487.153	34.06
487.498	34.03
487.843	33.9
488.188	33.81
488.532	33.71
488.877	33.57
489.222	33.25
489.566	33.01
489.911	32.91
490.255	32.71
490.6	32.45
490.944	32.22
491.288	32.1
491.633	31.92
491.977	31.57
492.321	31.4
492.665	31.15
493.009	30.93
493.353	30.73
493.697	30.57
494.041	30.4
494.385	30.21
494.729	30.07
495.073	29.89
495.417	29.75
495.76	29.62
496.104	29.38
496.448	29.23
496.791	29.04
497.135	28.85
497.479	28.68
497.822	28.63
498.165	28.51
498.509	28.32
498.852	28.21
499.196	28.13
499.539	28.11
499.882	27.95
500.225	27.83
500.568	27.8
500.911	27.68
501.254	27.7
501.597	27.69
501.94	27.61
502.283	27.36
502.626	27.2
502.969	26.99
503.312	26.74
503.654	26.61
503.997	26.44
504.34	26.37
504.682	26.26
505.025	26.2
505.367	26.17
505.71	25.99
506.052	25.89
506.395	25.79
506.737	25.74
507.079	25.59
507.421	25.42
507.764	25.28
508.106	25
508.448	24.84
508.79	24.67
509.132	24.48
509.474	24.33
509.816	24.13
510.158	23.96
510.499	23.79
510.841	23.67
511.183	23.43
511.525	23.45
511.866	23.55
512.208	23.37
512.549	23.35
512.891	23.24
513.232	23.19
513.574	23.01
513.915	22.84
514.256	22.71
514.598	22.66
514.939	22.51
515.28	22.21
515.621	22.07
515.962	21.91
516.303	21.82
516.644	21.89
516.985	21.82
517.326	21.74
517.667	21.68
518.008	21.62
518.349	21.56
518.69	21.53
519.03	21.45
519.371	21.49
519.712	21.53
520.052	21.49
520.393	21.22
520.733	21.2
521.074	21.06
521.414	20.99
521.754	20.79
522.095	20.68
522.435	20.51
522.775	20.49
523.115	20.36
523.455	20.21
523.795	20.32
524.135	20.27
524.475	20.27
524.815	20.13
525.155	20.11
525.495	20
525.835	19.97
526.175	19.94
526.514	19.88
526.854	19.7
527.194	19.53
527.533	19.41
527.873	19.37
528.212	19.25
528.552	19.22
528.891	19.12
529.23	19.05
529.57	18.99
529.909	18.87
530.248	18.84
530.587	18.89
530.927	18.94
531.266	18.87
531.605	18.77
531.944	18.72
532.283	18.48
532.621	18.41
532.96	18.56
533.299	18.53
533.638	18.27
533.977	18.22
534.315	18.18
534.654	18.08
534.992	18.01
535.331	18.07
535.67	17.98
536.008	17.89
536.346	17.72
536.685	17.64
537.023	17.49
537.361	17.4
537.7	17.35
538.038	17.32
538.376	17.25
538.714	17.22
539.052	17.02
539.39	16.94
539.728	16.89
540.066	16.82
540.404	16.74
540.741	16.69
541.079	16.63
541.417	16.51
541.755	16.4
542.092	16.33
542.43	16.25
542.767	16.07
543.105	16.04
543.442	15.89
543.78	15.88
544.117	15.82
544.454	15.81
544.792	15.64
545.129	15.66
545.466	15.62
545.803	15.64
546.14	15.67
546.477	15.4
546.814	15.25
547.151	15.28
547.488	15.25
547.825	15.22
548.162	15.21
548.499	15.28
548.835	15.42
549.172	15.43
549.509	15.35
549.845	15.19
550.182	15.14
550.518	15.3
550.855	15.32
551.191	15.46
551.528	15.29
551.864	15.41
552.2	15.23
552.537	15.35
552.873	15.31
553.209	15.43
553.545	15.29
553.881	15.38
554.217	15.44
554.553	15.43
554.889	15.62
555.225	15.74
555.561	15.71
555.896	15.8
556.232	15.83
556.568	15.94
556.903	15.87
557.239	15.89
557.575	16.11
557.91	16.16
558.245	16.24
558.581	16.37
558.916	16.32
559.252	16.26
559.587	16.04
559.922	16.27
560.257	16.27
560.592	16.4
560.928	16.37
561.263	16.48
561.598	16.58
561.933	16.73
562.267	16.91
562.602	16.87
562.937	16.78
563.272	16.85
563.607	16.84
563.941	16.79
564.276	16.91
564.611	16.95
564.945	16.92
565.28	16.85
565.614	16.91
565.949	16.86
566.283	16.97
566.617	16.93
566.951	16.95
567.286	17.03
567.62	17.08
567.954	17.28
568.288	17.42
568.622	17.43
568.956	17.58
569.29	17.58
569.624	17.6
569.958	17.56
570.292	17.63
570.626	17.52
570.959	17.51
571.293	17.63
571.627	17.67
571.96	17.78
572.294	17.84
572.627	17.84
572.961	18.03
573.294	18.07
573.627	18.19
573.961	18.24
574.294	18.24
574.627	18.27
574.961	18.31
575.294	18.3
575.627	18.25
575.96	18.33
576.293	18.31
576.626	18.26
576.959	18.32
577.292	18.27
577.624	18.34
577.957	18.34
578.29	18.41
578.623	18.43
578.955	18.46
579.288	18.62
579.62	18.65
579.953	18.75
580.285	18.8
580.618	18.85
580.95	18.79
581.282	18.63
581.615	18.64
581.947	18.69
582.279	18.66
582.611	18.73
582.943	18.71
583.275	18.79
583.607	18.85
583.939	18.99
584.271	19.05
584.603	19.1
584.935	19.16
585.267	19.29
585.598	19.24
585.93	19.26
586.262	19.36
586.593	19.39
586.925	19.4
587.256	19.49
587.588	19.4
587.919	19.39
588.25	19.36
588.582	19.37
588.913	19.47
589.244	19.68
589.575	19.76
589.907	19.84
590.238	19.83
590.569	20.04
590.9	20.15
591.231	20.22
591.562	20.42
591.892	20.52
592.223	20.61
592.554	20.71
592.885	20.8
593.215	20.95
593.546	20.92
593.877	21.12
594.207	21.3
594.538	21.45
594.868	21.59
595.198	21.76
595.529	21.75
595.859	21.83
596.189	22.04
596.52	22.08
596.85	22.13
597.18	22.15
597.51	22.11
597.84	22.27
598.17	22.43
598.5	22.57
598.83	22.6
599.16	22.91
599.489	22.98
599.819	23.1
600.149	23.35
600.479	23.52
600.808	23.63
601.138	23.93
601.467	24.05
601.797	24.38
602.126	24.68
602.456	24.81
602.785	24.84
603.114	25.02
603.443	25.19
603.773	25.56
604.102	25.91
604.431	26.13
604.76	26.38
605.089	26.65
605.418	26.87
605.747	27.17
606.076	27.38
606.405	27.67
606.733	27.92
607.062	28.35
607.391	28.38
607.72	28.8
608.048	29.07
608.377	29.27
608.705	29.56
609.034	30.06
609.362	30.26
609.69	30.62
610.019	30.9
610.347	30.99
610.675	31.19
611.004	31.48
611.332	31.97
611.66	32.46
611.988	32.77
612.316	32.99
612.644	33.07
612.972	33.44
613.3	33.81
613.627	34.18
613.955	34.66
614.283	35.17
614.611	35.31
614.938	35.67
615.266	35.73
615.593	36.11
615.921	36.44
616.248	36.65
616.576	37.38
616.903	37.9
617.23	38
617.558	38.63
617.885	39
618.212	39.34
618.539	39.78
618.866	40.18
619.193	40.65
619.52	40.51
619.847	40.43
620.174	40.63
620.501	40.93
620.828	41.23
621.155	41.59
621.481	41.61
621.808	41.98
622.135	42.17
622.461	42.31
622.788	42.38
623.114	42.54
623.441	42.51
623.767	42.96
624.093	43.32
624.42	43.82
624.746	43.97
625.072	44.12
625.398	44.47
625.725	44.68
626.051	44.85
626.377	45.17
626.703	45.55
627.029	46.22
627.354	46.72
627.68	47.45
628.006	48.02
628.332	48.51
628.658	49.22
628.983	49.74
629.309	50.4
629.634	50.98
629.96	51.12
630.285	51.77
630.611	51.74
630.936	52.79
631.262	53.03
631.587	53.63
631.912	53.75
632.237	54.09
632.562	54.6
632.887	54.44
633.213	54.88
633.538	55.68
633.863	56.26
634.187	56.6
634.512	56.11
634.837	55.94
635.162	55.81
635.487	55.49
635.811	55.78
636.136	56.13
636.461	56.18
636.785	55.88
637.11	56.46
637.434	56.03
637.758	56.2
638.083	56.67
638.407	56.25
638.731	56.3
639.056	56.03
639.38	55.98
639.704	56.68
640.028	56.51
640.352	56.75
640.676	55.86
641	56.24
641.324	55.38
641.648	55.11
641.972	54.89
642.295	55.44
642.619	56.12
642.943	55.51
643.266	55.4
643.59	55.88
643.913	55.34
644.237	55.14
644.56	54.86
644.884	55.25
645.207	55.12
645.53	55.46
645.854	55.78
646.177	55.91
646.5	56.28
646.823	56.77
647.146	56.93
647.469	57.53
647.792	57.46
648.115	57.53
648.438	57.54
648.761	59.49
649.084	61.56
649.406	62.61
649.729	62.2
650.052	62.05
650.374	62
650.697	62.17
651.019	62.47
651.342	62.74
651.664	62.73
651.987	62.8
652.309	62.92
652.631	63.08
652.953	63.16
653.276	63.07
653.598	63.18
653.92	62.99
654.242	63.17
654.564	63.19
654.886	63.22
655.208	63.29
655.53	63.09
655.851	63.2
656.173	63.32
656.495	63.57
656.816	63.33
657.138	62.68
657.46	62.01
657.781	63.06
658.103	63.95
658.424	64.87
658.746	65.14
659.067	65.94
659.388	65.43
659.709	65.2
660.031	65.12
660.352	65.34
660.673	65.27
660.994	64.31
661.315	65.13
661.636	64.3
661.957	65.69
662.278	65.41
662.599	65.42
662.919	65.42
663.24	65.2
663.561	65.87
663.881	65.44
664.202	65.17
664.523	64.18
664.843	64.11
665.164	63.2
665.484	63.65
665.804	62.94
666.125	62.95
666.445	62.39
666.765	62.61
667.085	63.05
667.405	63.09
667.726	63.82
668.046	63.99
668.366	64.33
668.686	65.13
669.005	65.82
669.325	65.65
669.645	66.04
669.965	65.41
670.285	64.51
670.604	64.11
670.924	64.12
671.243	64.88
671.563	64.71
671.882	64.64
672.202	64.91
672.521	65.5
672.841	65.17
673.16	66.15
673.479	66.54
673.798	66.51
674.117	67.05
674.437	66.66
674.756	66.43
675.075	65.61
675.394	65.8
675.713	66.24
676.031	66.59
676.35	66.44
676.669	65.72
676.988	65.57
677.306	65.37
677.625	65.93
677.944	66.58
678.262	66.75
678.581	67.61
678.899	68.22
679.218	67.75
679.536	67.96
679.854	67.56
680.172	67.63
680.491	67.81
680.809	68.26
681.127	67.76
681.445	68.04
681.763	68.97
682.081	68.61
682.399	69.01
682.717	69.05
683.035	69.43
683.352	70.01
683.67	70.32
683.988	70.86
684.306	70.84
684.623	70.4
684.941	70.55
685.258	70.65
685.576	70.81
685.893	70.57
686.211	71.83
686.528	71.61
686.845	70.19
687.162	70.12
687.48	70.31
687.797	72.26
688.114	72.49
688.431	72.4
688.748	72.14
689.065	72.23
689.382	71.74
689.699	72.42
690.015	73.28
690.332	73.27
690.649	73.95
690.966	73.16
691.282	72.55
691.599	71.51
691.915	70.84
692.232	71.7
692.548	72.17
692.865	71.32
693.181	72.21
693.497	70.76
693.813	69.48
694.13	68.22
694.446	68.57
694.762	69.84
695.078	69.69
695.394	69.96
695.71	67.75
696.026	67.53
696.342	67.42
696.658	67.5
696.973	66.36
697.289	66.79
697.605	65.42
697.92	63.9
698.236	64.07
698.551	62.35
698.867	63.92
699.182	64.04
699.498	64.11
699.813	64.71
700.128	63.96
700.444	64.29
700.759	65.9
701.074	64.68
701.389	65.57
701.704	65.9
702.019	65.52
702.334	64.79
702.649	64.47
702.964	65.47
703.279	66.8
703.594	67.51
703.908	66.45
704.223	65.69
704.538	64.92
704.852	66.42
705.167	66.36
705.481	66.52
705.796	66.34
706.11	66.12
706.425	66.26
706.739	65.7
707.053	65.85
707.368	65.96
707.682	65.11
707.996	64.08
708.31	63.59
708.624	63.4
708.938	63.94
709.252	63.84
709.566	64.25
709.88	65.24
710.193	65.63
710.507	65.86
710.821	65.32
711.135	63.69
711.448	64.06
711.762	66.06
712.075	65.75
712.389	66.27
712.702	64.55
713.015	65.09
713.329	64.8
713.642	65.3
713.955	66.38
714.269	67.15
714.582	65.91
714.895	64.5
715.208	66.13
715.521	65.88
715.834	67.54
716.147	68.53
716.459	68.4
716.772	68.23
717.085	69.18
717.398	70.01
717.71	68.4
718.023	67.6
718.336	67
718.648	66.86
718.961	67.26
719.273	66.61
719.585	67.28
719.898	68.31
720.21	69.08
720.522	72.35
720.834	69.1
721.147	69.09
721.459	69.13
721.771	66.39
722.083	64.63
722.395	65.26
722.707	65.43
723.019	63
723.33	63.84
723.642	65.39
723.954	64.46
724.265	65.21
724.577	65.74
724.889	65.48
725.2	65.26
725.512	66.67
725.823	68.27
726.135	67.83
726.446	67.62
726.757	66.72
727.068	67.31
727.38	65.86
727.691	65.51
728.002	65.19
728.313	64.68
728.624	66.52
728.935	66.23
729.246	67.26
729.557	68.65
729.867	70.46
730.178	71.5
730.489	71.9
730.8	72.07
731.11	71.46
731.421	69.46
731.731	69.06
732.042	68.89
732.352	68.14
732.663	67.42
732.973	67.63
733.283	68.46
733.594	67.63
733.904	68.58
734.214	68.23
734.524	69.24
734.834	69.13
735.144	69.76
735.454	71.07
735.764	70.74
736.074	69.36
736.384	68.78
736.694	68.64
737.003	68.22
737.313	67.53
737.623	65.74
737.932	64.19
738.242	65.01
738.551	65.76
738.861	64.97
739.17	64.26
739.479	64.94
739.789	63.36
740.098	64.35
740.407	66.82
740.716	65.87
741.025	62.83
741.334	62.75
741.643	62.28
741.952	63.86
742.261	62.52
742.57	64
742.879	59.92
743.188	60.12
743.497	61.35
743.805	61.96
744.114	62.64
744.422	63.37
744.731	61.73
745.04	59.94
745.348	60.68
745.656	63.23
745.965	62.27
746.273	62.46
746.581	67.7
746.889	67.34
747.198	68.9
747.506	69.32
747.814	68.1
748.122	63.33
748.43	62
748.738	59.74
749.046	57.34
749.353	57.31
749.661	57.63
749.969	58.1
750.277	58.28
750.584	58.74
750.892	58.56
751.199	57.68
751.507	57.63
751.814	58.59
752.122	60.12
752.429	61.45
752.736	62.3
753.044	63.38
753.351	62.01
753.658	61.52
753.965	60.58
754.272	58.67
754.579	59.54
754.886	60.55
755.193	60.34
755.5	61.72
755.807	64.69
756.114	64.1
756.42	66.08
756.727	67.75
757.034	68.88
757.34	68
757.647	68.65
757.953	68.9
758.26	69.4
758.566	69.21
758.872	69.1
759.179	71.98
759.485	72.69
759.791	71.59
760.097	69.06
760.403	70.19
760.709	70.69
761.015	69.19
761.321	69.57
761.627	69.43
761.933	69.5
762.239	69.81
762.545	67.33
762.851	66.17
763.156	64.72
763.462	64.63
763.767	69.04
764.073	70.2
764.378	68.7
764.684	69.26
764.989	70.98
765.295	70.55
765.6	67.71
765.905	69.88
766.21	69.3
766.515	68.65
766.821	65.07
767.126	56.17
767.431	59.21
767.736	62.66
768.041	60.81
768.345	58.17
768.65	62.18
768.955	62.59
769.26	62.61
769.564	62.51
769.869	63.03
770.174	63
770.478	66.71
770.783	69.41
771.087	68.18
771.391	61.41
771.696	61.5
772	66.17
772.304	66.31
772.608	66.6
772.913	69.6
773.217	71.22
773.521	69.6
773.825	68.26
774.129	70.3
774.433	68.82
774.736	71.49
775.04	68
775.344	61.07
775.648	60.29
775.951	62.41
776.255	62.05
776.559	60.84
776.862	63.59
777.166	62.28
777.469	58.53
777.772	61.84
778.076	60.97
778.379	58.67
778.682	56.69
778.985	59.92
779.289	60.91
779.592	55.83
779.895	51.33
780.198	51.64
780.501	49.62
780.804	43.21
781.106	45.35
781.409	45.49
781.712	47.81
782.015	47.86
782.317	50.14
782.62	48.31
782.923	58.1
783.225	61.25
783.527	56.45
783.83	57.55
784.132	60.55
784.435	58.46
784.737	57.53
785.039	59.85
785.341	51.12
785.643	47.7
785.945	48.61
786.248	47.72
786.55	47.15
786.851	44.81
787.153	47.47
787.455	50.71
787.757	45.75
788.059	39.72
788.36	50.94
788.662	51.37
788.964	53.33
789.265	50.48
789.567	53.37
789.868	52.71
790.17	58.57
790.471	53.84
790.772	50.11
791.074	50.51
791.375	43.84
791.676	36.4
791.977	33.07
792.278	33.86
792.579	34.51
792.88	36.15
793.181	36.48
793.482	32.57
793.783	32.8
794.083	34.84
794.384	26.69
794.685	27.18
794.986	30.2
795.286	31.32
795.587	28.96
795.887	21.28
796.188	18.93
796.488	17.88
796.788	20.66
797.089	18.5
797.389	15.4
797.689	9.52
797.989	11.14
798.289	9.01
798.589	9.99
798.889	5.35
799.189	10.93
799.489	3.47
799.789	7.04
800.089	1.67
800.389	3.74
800.688	7.31
800.988	7.25
801.288	3.72
801.587	-10.21
801.887	6.66
802.186	2.46
802.486	-8.75
802.785	-18.6
803.085	-11.57
803.384	10.63
803.683	-0.56
803.982	-3.17
804.281	-44.13
804.58	-54.39
804.879	-39.49
805.178	-63.49
805.477	-201.42
805.776	-89.79
806.075	-91.02
806.374	-86.29
806.673	-68.81
806.971	-74.29
807.27	-118.02
807.569	-69.86
807.867	-148.03
808.166	-236.62
808.464	-190.39
808.763	-137.52
809.061	-86.08
809.359	-80.81
809.658	-53.86
809.956	-94.25
810.254	-32.18
810.552	-33.03
810.85	-147.89
811.148	-240.05
811.446	-260.43
811.744	-86.07
812.042	-59.57
812.34	-92.65
812.638	-56.96
812.935	-61.83
813.233	-87.12
813.531	-171.25
813.828	-86.62
814.126	-76.84
814.423	-31.67
814.721	-72.51
815.018	-63.88
815.316	-57.08
815.613	-61.64
815.91	-83.72
816.207	-34.32
816.504	-21.63
816.802	-48.7
817.099	-99.42
817.396	-134.45
817.693	-150.8
817.99	-203.53
818.286	-235.5
818.583	-133.28
818.88	-54.83
819.177	-76.89
819.473	-95.47
819.77	-27
820.067	-21.47
820.363	-15
820.66	-9.71
820.956	14.07
821.252	-6.59
821.549	10.17
821.845	0.27
822.141	15.37
822.437	-3.21
822.734	10.87
823.03	-1.59
823.326	-38.54
823.622	-70.78
823.918	-35.63
824.213	-11.45
824.509	11.03
824.805	13.01
825.101	22.9
825.397	40.07
825.692	44.17
825.988	77.42
826.283	53.63
826.579	55.59
826.874	67.97
827.17	52.19
827.465	42.94
827.76	52.84
828.056	48.11
828.351	42.97
828.646	53.38
828.941	5.03
829.236	-15.23
829.531	-100.91
829.826	-14.12
830.121	-6.66
830.416	-9.64
830.711	42.34
831.006	29.4
831.3	16.91
831.595	28.55
831.89	31.22
832.184	24.6
832.479	24.29
832.773	20.13
833.068	18.39
833.362	10.7
833.656	2.5
833.951	-29.04
834.245	-36.26
834.539	-41.52
834.833	-22.2
835.127	-5.02
835.421	-18.7
835.715	-44.64
836.009	-68.61
836.303	-44.55
836.597	-7.42
836.891	21.45
837.185	19.41
837.478	-42.51
837.772	83.52
838.066	102.67
838.359	197.91
838.653	152.24
838.946	74.32
839.24	69.85
839.533	73.4
839.826	70.91
840.119	76.77
840.413	88.81
840.706	68.8
840.999	72.93
841.292	92.03
841.585	85.22
841.878	65.55
842.171	77.82
842.464	109.29
842.757	153.61
843.049	178.76
843.342	140.05
843.635	106.02
843.927	89.6
844.22	63.53
844.513	48.82
844.805	47.95
845.098	24.39
845.39	9.06
845.682	-12.97
845.975	-8.9
846.267	11.15
846.559	-7.32
846.851	4.03
847.143	-7.82
847.435	-12.95
847.727	-25.1
848.019	-19.88
848.311	-12.8
848.603	-26.86
848.895	-21.46
849.186	22.44
849.478	5.62
849.77	-1.63
850.061	-16.52
850.353	-2.18
850.645	-0.5
850.936	9.67
851.227	20.83
851.519	34.08
851.81	44.7
852.101	42.78
852.393	61.2
852.684	53.95
852.975	56.21
853.266	51.94
853.557	46.5
853.848	48.75
854.139	48.72
854.43	42.65
854.72	34.59
855.011	41.07
855.302	42.71
855.593	36.95
855.883	56.08
856.174	57.59
856.464	52.87
856.755	52.08
857.045	56.54
857.336	61.68
857.626	56.04
857.916	75.22
858.206	78.7
858.497	98.91
858.787	88.18
859.077	69.67
859.367	77.17
859.657	48.62
859.947	61.29
860.237	68.14
860.527	55.29
860.816	36.92
861.106	45.97
861.396	34.78
861.685	46.73
861.975	58.81
862.265	75.89
862.554	75.73
862.844	67.81
863.133	30.9
863.422	21.67
863.712	-15.58
864.001	-27.77
864.29	-46.72
864.579	-48.73
864.868	-42.26
865.157	-61.83
865.446	-25.72
865.735	-23.81
866.024	-34.52
866.313	-24.91
866.602	-29.49
866.891	-45.89
867.179	-84.32
867.468	-50.22
