Data from T2_Reflection__143__02-09-40-780.txt Node

Date: Fri Jun 04 02:09:40 CEST 2021
User: mabdelazizm
Spectrometer: FLMS18565
Trigger mode: 0
Integration Time (sec): 2.000000E0
Scans to average: 1
Electric dark correction enabled: true
Nonlinearity correction enabled: false
Boxcar width: 12
XAxis mode: Wavelengths
Number of Pixels in Spectrum: 2048
>>>>>Begin Spectral Data<<<<<
179.071	-512.11
179.452	-355.27
179.833	-306.99
180.214	-5850
180.595	-243.01
180.977	-349.75
181.358	-2861.22
181.739	1206.06
182.12	273.93
182.501	230.07
182.882	188.08
183.262	168.05
183.643	131.84
184.024	109.16
184.405	93.45
184.786	83.97
185.166	79.92
185.547	62.33
185.927	68.77
186.308	50.75
186.689	61.48
187.069	45.68
187.449	54.21
187.83	49.39
188.21	44.68
188.59	47.53
188.971	46.87
189.351	44.98
189.731	41.83
190.111	44.15
190.491	44.39
190.871	45.15
191.251	46.6
191.631	45.09
192.011	39.82
192.391	36.67
192.771	38.62
193.151	35.69
193.531	33.8
193.91	30.64
194.29	28.92
194.67	29.84
195.049	27.61
195.429	25.18
195.808	27.6
196.188	22.47
196.567	24.56
196.946	24.09
197.326	24.13
197.705	26.54
198.084	25.78
198.464	21.52
198.843	23.1
199.222	22.46
199.601	20.42
199.98	23.75
200.359	26.16
200.738	27.11
201.117	29.97
201.496	30.02
201.875	30.99
202.254	27.83
202.632	28.72
203.011	31.44
203.39	30.31
203.768	29.59
204.147	27.93
204.525	26.59
204.904	25.94
205.282	24.49
205.661	23.38
206.039	24.45
206.418	23.82
206.796	26.95
207.174	28.12
207.552	29.93
207.931	28.73
208.309	28.12
208.687	29.14
209.065	29.2
209.443	29.59
209.821	27.09
210.199	25.74
210.577	25.49
210.954	24.44
211.332	25.31
211.71	25.8
212.088	24.88
212.465	24.11
212.843	24
213.221	23.34
213.598	24.04
213.976	23.51
214.353	25.55
214.731	25.43
215.108	26.79
215.485	26.1
215.863	24.82
216.24	20.72
216.617	20.48
216.994	19.87
217.371	20.33
217.749	20.13
218.126	17.21
218.503	15.86
218.88	13.77
219.256	14.17
219.633	13.53
220.01	12.53
220.387	12.99
220.764	12.65
221.14	12.39
221.517	12.58
221.894	11.89
222.27	11.94
222.647	11.39
223.023	11
223.4	11.38
223.776	9.79
224.153	9.65
224.529	8.41
224.905	7.89
225.282	7.4
225.658	8.44
226.034	7.6
226.41	6.83
226.786	6.66
227.162	7.07
227.538	7.31
227.914	7.52
228.29	7.31
228.666	7.03
229.042	6.52
229.418	6.45
229.793	6.68
230.169	6.76
230.545	6.37
230.92	6.12
231.296	5.92
231.672	5.74
232.047	5.54
232.422	5.14
232.798	4.94
233.173	4.93
233.549	4.97
233.924	5.09
234.299	5.27
234.674	5.46
235.05	5.15
235.425	5.07
235.8	4.76
236.175	4.66
236.55	4.28
236.925	4.29
237.3	4.08
237.675	4.09
238.049	4.03
238.424	4.3
238.799	4.05
239.174	3.93
239.548	3.74
239.923	3.73
240.297	3.67
240.672	3.66
241.046	3.63
241.421	3.7
241.795	3.74
242.17	3.77
242.544	3.64
242.918	3.67
243.293	3.58
243.667	3.6
244.041	3.55
244.415	3.59
244.789	3.63
245.163	3.81
245.537	3.82
245.911	3.83
246.285	3.85
246.659	3.85
247.033	3.75
247.406	3.83
247.78	3.72
248.154	3.8
248.528	3.72
248.901	3.74
249.275	3.77
249.648	3.83
250.022	3.91
250.395	3.88
250.769	3.88
251.142	3.95
251.515	3.95
251.888	4.01
252.262	4.01
252.635	4.02
253.008	3.97
253.381	3.91
253.754	3.86
254.127	3.83
254.5	3.75
254.873	3.75
255.246	3.83
255.619	3.85
255.992	3.81
256.364	3.84
256.737	3.75
257.11	3.72
257.483	3.64
257.855	3.69
258.228	3.65
258.6	3.65
258.973	3.6
259.345	3.47
259.718	3.45
260.09	3.41
260.462	3.29
260.834	3.3
261.207	3.29
261.579	3.24
261.951	3.26
262.323	3.17
262.695	3.19
263.067	3.19
263.439	3.11
263.811	3.16
264.183	3.08
264.555	3.01
264.927	2.97
265.298	3.08
265.67	2.98
266.042	2.99
266.413	2.91
266.785	2.92
267.156	2.94
267.528	2.9
267.899	2.85
268.271	2.85
268.642	2.92
269.013	3.02
269.385	3.04
269.756	3.02
270.127	2.98
270.498	3
270.87	2.91
271.241	2.91
271.612	2.88
271.983	2.84
272.354	2.79
272.724	2.81
273.095	2.8
273.466	2.83
273.837	2.82
274.208	2.84
274.578	2.73
274.949	2.73
275.32	2.68
275.69	2.74
276.061	2.78
276.431	2.73
276.802	2.79
277.172	2.84
277.542	2.74
277.913	2.7
278.283	2.72
278.653	2.65
279.023	2.71
279.394	2.74
279.764	2.77
280.134	2.88
280.504	2.83
280.874	2.88
281.244	2.89
281.614	2.94
281.983	3.03
282.353	2.98
282.723	2.98
283.093	2.93
283.462	2.93
283.832	2.9
284.202	2.99
284.571	2.97
284.941	3.05
285.31	3.1
285.68	3.15
286.049	3.12
286.418	3.08
286.788	3.24
287.157	3.25
287.526	3.16
287.895	3.23
288.264	3.22
288.633	3.15
289.002	3.03
289.371	2.95
289.74	2.93
290.109	2.9
290.478	2.86
290.847	2.83
291.216	2.73
291.585	2.68
291.953	2.68
292.322	2.77
292.691	2.74
293.059	2.79
293.428	2.77
293.796	2.78
294.165	2.72
294.533	2.65
294.901	2.65
295.27	2.65
295.638	2.74
296.006	2.63
296.374	2.58
296.743	2.6
297.111	2.6
297.479	2.57
297.847	2.53
298.215	2.59
298.583	2.58
298.95	2.58
299.318	2.6
299.686	2.6
300.054	2.6
300.422	2.61
300.789	2.63
301.157	2.64
301.525	2.59
301.892	2.56
302.26	2.58
302.627	2.61
302.994	2.55
303.362	2.56
303.729	2.59
304.097	2.55
304.464	2.59
304.831	2.47
305.198	2.48
305.565	2.45
305.932	2.44
306.299	2.39
306.666	2.45
307.033	2.44
307.4	2.37
307.767	2.3
308.134	2.33
308.501	2.32
308.867	2.29
309.234	2.3
309.601	2.33
309.967	2.35
310.334	2.31
310.701	2.3
311.067	2.31
311.433	2.25
311.8	2.21
312.166	2.23
312.533	2.22
312.899	2.17
313.265	2.13
313.631	2.08
313.997	2.08
314.363	2.06
314.729	2.11
315.096	2.08
315.461	2.09
315.827	1.95
316.193	2
316.559	1.93
316.925	2.05
317.291	2
317.656	1.97
318.022	2.04
318.388	1.93
318.753	1.95
319.119	2.01
319.484	2.03
319.85	1.99
320.215	2.02
320.581	2.09
320.946	2.13
321.311	2.16
321.676	2.15
322.042	2.13
322.407	2.12
322.772	2.09
323.137	2.16
323.502	2.15
323.867	2.16
324.232	2.16
324.597	2.17
324.962	2.3
325.327	2.34
325.691	2.51
326.056	2.41
326.421	2.41
326.785	2.44
327.15	2.46
327.514	2.5
327.879	2.42
328.243	2.33
328.608	2.34
328.972	2.36
329.337	2.28
329.701	2.2
330.065	2.22
330.429	2.22
330.794	2.16
331.158	2.27
331.522	2.32
331.886	2.34
332.25	2.27
332.614	2.25
332.978	2.24
333.342	2.3
333.705	2.27
334.069	2.21
334.433	2.13
334.797	2
335.16	2.04
335.524	2.04
335.887	1.94
336.251	1.82
336.614	1.82
336.978	1.87
337.341	1.91
337.705	1.87
338.068	1.9
338.431	1.85
338.794	1.82
339.158	1.7
339.521	1.7
339.884	1.73
340.247	1.57
340.61	1.54
340.973	1.45
341.336	1.47
341.699	1.51
342.062	1.51
342.424	1.4
342.787	1.37
343.15	1.37
343.512	1.4
343.875	1.41
344.238	1.38
344.6	1.4
344.963	1.5
345.325	1.5
345.688	1.55
346.05	1.52
346.412	1.47
346.775	1.5
347.137	1.43
347.499	1.51
347.861	1.55
348.223	1.65
348.585	1.73
348.947	1.63
349.309	1.66
349.671	1.64
350.033	1.72
350.395	1.74
350.757	1.76
351.118	1.73
351.48	1.72
351.842	1.65
352.203	1.6
352.565	1.54
352.927	1.61
353.288	1.66
353.65	1.58
354.011	1.46
354.372	1.47
354.734	1.48
355.095	1.49
355.456	1.53
355.817	1.46
356.179	1.44
356.54	1.41
356.901	1.39
357.262	1.3
357.623	1.21
357.984	1.34
358.345	1.39
358.705	1.39
359.066	1.33
359.427	1.35
359.788	1.34
360.148	1.33
360.509	1.34
360.87	1.4
361.23	1.48
361.591	1.56
361.951	1.62
362.312	1.72
362.672	1.81
363.032	1.88
363.393	1.94
363.753	1.97
364.113	1.98
364.473	2
364.833	2.03
365.193	2.05
365.553	2.07
365.913	2.06
366.273	2.12
366.633	2.11
366.993	2.04
367.353	1.96
367.713	1.98
368.072	2.08
368.432	1.99
368.792	1.97
369.151	1.99
369.511	1.97
369.87	1.99
370.23	1.98
370.589	1.99
370.949	1.95
371.308	1.92
371.667	1.91
372.027	1.88
372.386	1.81
372.745	1.79
373.104	1.73
373.463	1.72
373.822	1.74
374.181	1.75
374.54	1.72
374.899	1.83
375.258	1.84
375.617	1.87
375.975	1.98
376.334	2.06
376.693	2.12
377.052	2.04
377.41	2.1
377.769	2.12
378.127	2.14
378.486	2.24
378.844	2.28
379.202	2.32
379.561	2.25
379.919	2.11
380.277	2.05
380.636	2.03
380.994	2.03
381.352	2.09
381.71	2.09
382.068	2.11
382.426	2.07
382.784	2.18
383.142	2.22
383.5	2.29
383.857	2.29
384.215	2.31
384.573	2.35
384.931	2.26
385.288	2.31
385.646	2.29
386.003	2.34
386.361	2.33
386.718	2.26
387.076	2.23
387.433	2.11
387.791	2.14
388.148	2.11
388.505	2.19
388.862	2.33
389.22	2.4
389.577	2.53
389.934	2.6
390.291	2.64
390.648	2.66
391.005	2.78
391.362	2.9
391.718	2.81
392.075	2.8
392.432	2.88
392.789	2.88
393.145	2.96
393.502	3.03
393.859	3.15
394.215	3.18
394.572	3.27
394.928	3.35
395.285	3.42
395.641	3.58
395.997	3.75
396.354	4
396.71	4.17
397.066	4.25
397.422	4.44
397.778	4.68
398.134	4.93
398.491	5.05
398.846	5.22
399.202	5.54
399.558	5.74
399.914	5.9
400.27	6.08
400.626	6.24
400.981	6.47
401.337	6.71
401.693	6.99
402.048	7.19
402.404	7.39
402.759	7.8
403.115	8.14
403.47	8.55
403.826	8.9
404.181	9.23
404.536	9.6
404.892	9.92
405.247	10.31
405.602	10.5
405.957	10.96
406.312	11.22
406.667	11.44
407.022	11.74
407.377	12.2
407.732	12.67
408.087	12.92
408.442	13.33
408.796	13.69
409.151	14.09
409.506	14.63
409.86	15.01
410.215	15.4
410.57	15.95
410.924	16.4
411.279	16.77
411.633	17.04
411.987	17.43
412.342	17.74
412.696	18.12
413.05	18.56
413.404	18.99
413.758	19.5
414.113	19.76
414.467	20.24
414.821	20.62
415.175	21.23
415.529	21.69
415.882	22.12
416.236	22.5
416.59	22.78
416.944	23.3
417.298	23.74
417.651	24.08
418.005	24.61
418.358	25.06
418.712	25.57
419.065	25.99
419.419	26.24
419.772	26.67
420.126	27.18
420.479	27.57
420.832	28.04
421.185	28.34
421.539	28.75
421.892	29.09
422.245	29.47
422.598	29.75
422.951	30.31
423.304	30.64
423.657	31.02
424.01	31.19
424.363	31.68
424.715	32.12
425.068	32.53
425.421	32.97
425.773	33.2
426.126	33.61
426.479	34.13
426.831	34.37
427.184	34.53
427.536	34.79
427.889	35.06
428.241	35.35
428.593	35.66
428.945	35.97
429.298	36.35
429.65	36.53
430.002	36.84
430.354	37.16
430.706	37.46
431.058	37.61
431.41	37.84
431.762	37.95
432.114	38.21
432.466	38.35
432.817	38.56
433.169	38.57
433.521	38.73
433.872	38.65
434.224	38.76
434.576	38.77
434.927	38.82
435.279	38.79
435.63	38.76
435.981	39.1
436.333	39.18
436.684	39.18
437.035	39.08
437.387	38.91
437.738	38.78
438.089	38.66
438.44	38.7
438.791	38.54
439.142	38.5
439.493	38.48
439.844	38.39
440.195	38.34
440.545	38.22
440.896	38.23
441.247	38.18
441.598	38.12
441.948	38.22
442.299	38.14
442.649	38.19
443	38.05
443.35	38.15
443.701	38.11
444.051	38.19
444.401	38.27
444.752	38.12
445.102	38.06
445.452	38.03
445.802	38.18
446.152	38.38
446.502	38.51
446.852	38.4
447.202	38.35
447.552	38.55
447.902	38.46
448.252	38.51
448.602	37.62
448.952	37.68
449.301	37.82
449.651	37.88
450.001	37.92
450.35	38.09
450.7	38.04
451.049	38.15
451.399	38.32
451.748	38.49
452.097	38.64
452.447	38.82
452.796	38.95
453.145	38.95
453.494	39.11
453.843	39.15
454.193	39.39
454.542	39.64
454.891	39.64
455.239	39.77
455.588	40.02
455.937	40.1
456.286	40.27
456.635	40.4
456.984	40.57
457.332	41.85
457.681	42.11
458.03	42.18
458.378	42.3
458.727	42.52
459.075	42.55
459.423	42.79
459.772	42.65
460.12	42.62
460.468	42.67
460.817	42.64
461.165	42.34
461.513	42.29
461.861	42.41
462.209	42.14
462.557	42.17
462.905	42.09
463.253	41.87
463.601	41.97
463.949	42
464.297	41.87
464.644	41.66
464.992	41.4
465.34	41.39
465.687	41.25
466.035	41.08
466.383	40.88
466.73	40.88
467.078	40.65
467.425	40.32
467.772	40.12
468.12	39.8
468.467	39.69
468.814	39.62
469.161	39.51
469.508	39.36
469.856	39.36
470.203	39.03
470.55	38.71
470.897	38.64
471.243	38.62
471.59	38.37
471.937	38.12
472.284	37.89
472.631	37.43
472.977	37.22
473.324	37.29
473.671	37.1
474.017	36.75
474.364	36.47
474.71	36.16
475.057	35.84
475.403	35.71
475.749	35.45
476.096	35.37
476.442	35.3
476.788	35.32
477.134	35.23
477.48	35.16
477.826	35.01
478.172	34.9
478.518	34.86
478.864	34.91
479.21	34.94
479.556	34.88
479.902	34.77
480.248	34.83
480.593	34.98
480.939	34.96
481.285	35.1
481.63	35.24
481.976	35.21
482.321	35.33
482.667	35.59
483.012	35.78
483.357	36.02
483.703	36.06
484.048	36.18
484.393	36.35
484.738	36.54
485.084	36.55
485.429	36.62
485.774	36.77
486.119	36.86
486.464	36.99
486.808	37.09
487.153	37.16
487.498	37.23
487.843	37.32
488.188	37.49
488.532	37.72
488.877	37.82
489.222	37.77
489.566	37.8
489.911	37.99
490.255	38.17
490.6	38.23
490.944	38.3
491.288	38.23
491.633	38.23
491.977	38.11
492.321	38.25
492.665	38.05
493.009	38.07
493.353	37.99
493.697	38
494.041	38
494.385	38.02
494.729	37.92
495.073	37.84
495.417	37.83
495.76	37.79
496.104	37.75
496.448	37.63
496.791	37.49
497.135	37.24
497.479	37.23
497.822	37.3
498.165	37.18
498.509	36.98
498.852	36.75
499.196	36.65
499.539	36.51
499.882	36.45
500.225	36.34
500.568	36.26
500.911	36.15
501.254	36.21
501.597	36.08
501.94	36.05
502.283	35.94
502.626	35.8
502.969	35.47
503.312	35.31
503.654	35.21
503.997	35.1
504.34	35.07
504.682	34.87
505.025	34.93
505.367	34.76
505.71	34.61
506.052	34.27
506.395	34.03
506.737	34.02
507.079	33.93
507.421	33.77
507.764	33.61
508.106	33.39
508.448	33.26
508.79	33.12
509.132	33
509.474	32.81
509.816	32.52
510.158	32.43
510.499	32.25
510.841	32.2
511.183	32.09
511.525	32.11
511.866	32.22
512.208	32.06
512.549	31.92
512.891	31.82
513.232	31.81
513.574	31.44
513.915	31.36
514.256	31.26
514.598	31.28
514.939	31.16
515.28	30.81
515.621	30.59
515.962	30.44
516.303	30.36
516.644	30.35
516.985	30.2
517.326	30.05
517.667	29.84
518.008	29.83
518.349	29.8
518.69	29.78
519.03	29.66
519.371	29.54
519.712	29.38
520.052	29.16
520.393	28.91
520.733	28.87
521.074	28.71
521.414	28.48
521.754	28.33
522.095	28.28
522.435	28.23
522.775	28.35
523.115	28.27
523.455	28.14
523.795	28.23
524.135	28.23
524.475	28.12
524.815	28.1
525.155	28.06
525.495	27.98
525.835	27.83
526.175	27.9
526.514	27.68
526.854	27.64
527.194	27.5
527.533	27.33
527.873	27.17
528.212	27.02
528.552	27.1
528.891	26.95
529.23	26.82
529.57	26.69
529.909	26.51
530.248	26.38
530.587	26.35
530.927	26.26
531.266	26.02
531.605	25.82
531.944	25.81
532.283	25.78
532.621	25.58
532.96	25.6
533.299	25.52
533.638	25.46
533.977	25.43
534.315	25.51
534.654	25.4
534.992	25.41
535.331	25.21
535.67	25
536.008	24.91
536.346	24.76
536.685	24.65
537.023	24.54
537.361	24.57
537.7	24.44
538.038	24.37
538.376	24.35
538.714	24.42
539.052	24.35
539.39	24.33
539.728	24.28
540.066	24.31
540.404	24.29
540.741	24.11
541.079	24.17
541.417	24.16
541.755	23.97
542.092	23.81
542.43	23.61
542.767	23.45
543.105	23.5
543.442	23.55
543.78	23.63
544.117	23.69
544.454	23.7
544.792	23.76
545.129	23.84
545.466	23.64
545.803	23.67
546.14	23.81
546.477	23.82
546.814	23.92
547.151	23.77
547.488	23.79
547.825	23.69
548.162	23.8
548.499	23.88
548.835	23.77
549.172	23.78
549.509	23.68
549.845	23.53
550.182	23.47
550.518	23.45
550.855	23.49
551.191	23.52
551.528	23.38
551.864	23.48
552.2	23.5
552.537	23.54
552.873	23.54
553.209	23.54
553.545	23.48
553.881	23.69
554.217	23.54
554.553	23.47
554.889	23.54
555.225	23.37
555.561	23.33
555.896	23.27
556.232	23.34
556.568	23.24
556.903	23.23
557.239	23.31
557.575	23.41
557.91	23.5
558.245	23.59
558.581	23.78
558.916	23.88
559.252	23.98
559.587	23.95
559.922	24.16
560.257	23.91
560.592	23.94
560.928	23.89
561.263	23.9
561.598	23.87
561.933	23.96
562.267	24.15
562.602	24.23
562.937	24.18
563.272	24.18
563.607	24.26
563.941	24.27
564.276	24.38
564.611	24.41
564.945	24.47
565.28	24.5
565.614	24.5
565.949	24.62
566.283	24.71
566.617	24.74
566.951	24.87
567.286	24.89
567.62	24.85
567.954	24.95
568.288	24.97
568.622	25.12
568.956	25.19
569.29	25.19
569.624	25.27
569.958	25.34
570.292	25.35
570.626	25.33
570.959	25.38
571.293	25.49
571.627	25.69
571.96	25.9
572.294	26.06
572.627	26.12
572.961	26.24
573.294	26.34
573.627	26.5
573.961	26.55
574.294	26.57
574.627	26.66
574.961	26.77
575.294	26.74
575.627	26.87
575.96	26.91
576.293	26.94
576.626	26.9
576.959	26.95
577.292	26.98
577.624	27.11
577.957	27.16
578.29	27.32
578.623	27.43
578.955	27.45
579.288	27.52
579.62	27.56
579.953	27.58
580.285	27.56
580.618	27.67
580.95	27.71
581.282	27.74
581.615	27.8
581.947	27.82
582.279	27.9
582.611	27.97
582.943	27.99
583.275	28.02
583.607	28.13
583.939	28.21
584.271	28.4
584.603	28.44
584.935	28.64
585.267	28.7
585.598	28.76
585.93	28.74
586.262	28.93
586.593	28.94
586.925	29.06
587.256	29.12
587.588	29.3
587.919	29.45
588.25	29.45
588.582	29.52
588.913	29.55
589.244	29.64
589.575	29.78
589.907	29.73
590.238	29.74
590.569	29.9
590.9	29.92
591.231	30.03
591.562	30.2
591.892	30.22
592.223	30.23
592.554	30.48
592.885	30.56
593.215	30.63
593.546	30.67
593.877	30.67
594.207	30.91
594.538	31
594.868	31.19
595.198	31.22
595.529	31.24
595.859	31.22
596.189	31.16
596.52	31.24
596.85	31.35
597.18	31.45
597.51	31.53
597.84	31.58
598.17	31.86
598.5	32.01
598.83	32.14
599.16	32.44
599.489	32.49
599.819	32.62
600.149	32.89
600.479	33.16
600.808	33.06
601.138	33.28
601.467	33.41
601.797	33.74
602.126	34.21
602.456	34.4
602.785	34.56
603.114	34.65
603.443	34.92
603.773	35.3
604.102	35.64
604.431	36.23
604.76	36.52
605.089	36.76
605.418	36.97
605.747	37.29
606.076	37.57
606.405	37.79
606.733	38.04
607.062	38.37
607.391	38.5
607.72	38.9
608.048	39.24
608.377	39.33
608.705	39.66
609.034	40.03
609.362	40.45
609.69	40.99
610.019	41.31
610.347	41.49
610.675	41.59
611.004	41.76
611.332	42.27
611.66	42.85
611.988	43
612.316	43.27
612.644	43.17
612.972	43.6
613.3	43.88
613.627	44.2
613.955	44.64
614.283	44.91
614.611	45.22
614.938	45.52
615.266	45.58
615.593	45.9
615.921	46.28
616.248	46.58
616.576	47.3
616.903	47.76
617.23	48.35
617.558	49.12
617.885	49.45
618.212	49.97
618.539	50.57
618.866	51.13
619.193	51.73
619.52	51.82
619.847	51.84
620.174	52.51
620.501	52.9
620.828	53.36
621.155	53.82
621.481	54
621.808	54.59
622.135	54.79
622.461	55.3
622.788	55.28
623.114	55.86
623.441	56.07
623.767	56.38
624.093	56.72
624.42	57.27
624.746	57.86
625.072	58.08
625.398	58.53
625.725	58.5
626.051	58.78
626.377	59.15
626.703	59.12
627.029	59.55
627.354	59.6
627.68	60.12
628.006	60.41
628.332	60.67
628.658	60.9
628.983	61.24
629.309	61.02
629.634	61.79
629.96	61.65
630.285	62.19
630.611	62.18
630.936	62.74
631.262	62.78
631.587	63.63
631.912	64.08
632.237	64.63
632.562	65.08
632.887	64.53
633.213	64.44
633.538	64.99
633.863	65.65
634.187	65.98
634.512	65.92
634.837	65.85
635.162	65.7
635.487	65.66
635.811	65.67
636.136	65.69
636.461	65.95
636.785	65.64
637.11	66.49
637.434	66.25
637.758	66.54
638.083	67.08
638.407	66.68
638.731	66.9
639.056	67.81
639.38	68.04
639.704	68.41
640.028	68.74
640.352	68.75
640.676	68.05
641	69.45
641.324	69.61
641.648	68.76
641.972	68.76
642.295	68.99
642.619	68.99
642.943	68.99
643.266	68.8
643.59	69.19
643.913	69.1
644.237	69.3
644.56	69.44
644.884	70.21
645.207	69.88
645.53	70.67
645.854	70.6
646.177	70.28
646.5	70.84
646.823	70.88
647.146	70.71
647.469	70.97
647.792	71.05
648.115	70.88
648.438	71.2
648.761	73.21
649.084	73.66
649.406	74.4
649.729	73.63
650.052	73.33
650.374	73.44
650.697	73.52
651.019	73.53
651.342	73.9
651.664	73.95
651.987	73.97
652.309	74.03
652.631	74
652.953	74.04
653.276	74.03
653.598	74.18
653.92	74.01
654.242	74.22
654.564	74.3
654.886	74.34
655.208	74.09
655.53	73.93
655.851	73.88
656.173	73.99
656.495	74.14
656.816	73.58
657.138	73.32
657.46	72.41
657.781	74.54
658.103	75.37
658.424	75.85
658.746	76.31
659.067	76.96
659.388	76.01
659.709	76.34
660.031	76.82
660.352	76.93
660.673	77.32
660.994	76.8
661.315	76.2
661.636	75.7
661.957	76.88
662.278	77.02
662.599	76.52
662.919	76.19
663.24	77.12
663.561	77.21
663.881	77.06
664.202	77.3
664.523	76.06
664.843	76.92
665.164	75.99
665.484	76.55
665.804	75.62
666.125	76.04
666.445	75.09
666.765	75.54
667.085	76.06
667.405	76.25
667.726	76.29
668.046	75.51
668.366	76.18
668.686	76.3
669.005	76.76
669.325	77.22
669.645	77.09
669.965	76.45
670.285	75.65
670.604	76
670.924	76.3
671.243	76.63
671.563	76.83
671.882	77.07
672.202	76.62
672.521	76.88
672.841	76.6
673.16	76.94
673.479	77.19
673.798	76.6
674.117	76.52
674.437	76.93
674.756	76.48
675.075	76.7
675.394	77.45
675.713	77.93
676.031	78.38
676.35	78.27
676.669	77.67
676.988	77.63
677.306	77.24
677.625	77.82
677.944	78.03
678.262	77.98
678.581	78.26
678.899	78.58
679.218	78.36
679.536	78.6
679.854	79.09
680.172	80.01
680.491	80.39
680.809	79.85
681.127	79.98
681.445	79.78
681.763	80.81
682.081	80.91
682.399	81.66
682.717	82.03
683.035	82.02
683.352	81.9
683.67	81.34
683.988	82.98
684.306	82.52
684.623	82.99
684.941	82.42
685.258	82.77
685.576	83.39
685.893	83.26
686.211	84.34
686.528	85.32
686.845	85.39
687.162	85.17
687.48	85.91
687.797	85.92
688.114	85.51
688.431	85.79
688.748	86.03
689.065	86.16
689.382	85.37
689.699	85.79
690.015	86.46
690.332	85.98
690.649	85.32
690.966	84.06
691.282	84.55
691.599	84.88
691.915	83.45
692.232	84.08
692.548	83.4
692.865	84.64
693.181	85.05
693.497	83.54
693.813	83.54
694.13	83.63
694.446	83.14
694.762	82.73
695.078	82.51
695.394	81.09
695.71	80.04
696.026	79.65
696.342	79.73
696.658	79.72
696.973	79.07
697.289	80.34
697.605	79.81
697.92	79.27
698.236	78.99
698.551	78.47
698.867	80.13
699.182	80.87
699.498	81.46
699.813	81.9
700.128	81.85
700.444	82.49
700.759	81.85
701.074	81.89
701.389	82.49
701.704	83.13
702.019	82.38
702.334	81.66
702.649	81.76
702.964	83.07
703.279	84.36
703.594	85.6
703.908	85.74
704.223	85.35
704.538	85.41
704.852	86.91
705.167	86.26
705.481	85.91
705.796	84.79
706.11	84.86
706.425	85.2
706.739	83.39
707.053	81.67
707.368	81.42
707.682	80.39
707.996	79.8
708.31	79.14
708.624	78.94
708.938	79.45
709.252	79.81
709.566	78.56
709.88	78.62
710.193	78.77
710.507	78.83
710.821	78.96
711.135	76.96
711.448	76.55
711.762	77.19
712.075	76.31
712.389	76.45
712.702	75.69
713.015	76.31
713.329	75.63
713.642	76.39
713.955	76.64
714.269	77.08
714.582	78.19
714.895	79.27
715.208	79.59
715.521	79.36
715.834	81.17
716.147	81.63
716.459	82.81
716.772	81.58
717.085	80.3
717.398	80.57
717.71	81.12
718.023	80.96
718.336	81.83
718.648	80.03
718.961	82.56
719.273	83.85
719.585	84.54
719.898	86.45
720.21	89.04
720.522	91.23
720.834	89.19
721.147	90.23
721.459	88.7
721.771	88.23
722.083	87.4
722.395	87.79
722.707	86.37
723.019	84.22
723.33	86.04
723.642	84.6
723.954	82.93
724.265	83.15
724.577	83.73
724.889	83.64
725.2	83.84
725.512	83.76
725.823	85.53
726.135	85.36
726.446	86.17
726.757	84.86
727.068	84.76
727.38	84.67
727.691	83.69
728.002	81.75
728.313	79.46
728.624	80.59
728.935	80.65
729.246	81.93
729.557	81.57
729.867	82.69
730.178	82.2
730.489	82.87
730.8	83.51
731.11	82.5
731.421	81.91
731.731	84.14
732.042	83.65
732.352	83.23
732.663	83.9
732.973	84.45
733.283	84.76
733.594	83.47
733.904	83.55
734.214	83.84
734.524	85.06
734.834	85.41
735.144	85.15
735.454	86.22
735.764	87.16
736.074	87.45
736.384	87.06
736.694	87.06
737.003	88.13
737.313	89.36
737.623	88.05
737.932	88.28
738.242	90.18
738.551	91.57
738.861	91.98
739.17	91.52
739.479	90.18
739.789	90.08
740.098	92.04
740.407	93.48
740.716	95.7
741.025	95.03
741.334	93.27
741.643	93.48
741.952	95.11
742.261	93.29
742.57	92.78
742.879	90.04
743.188	91.17
743.497	89.66
743.805	93.39
744.114	96.55
744.422	98.74
744.731	96.8
745.04	96.87
745.348	97.6
745.656	100.77
745.965	98.32
746.273	98.97
746.581	99.81
746.889	99.36
747.198	99.3
747.506	99.7
747.814	100
748.122	98.92
748.43	96.58
748.738	95.61
749.046	97.4
749.353	95.62
749.661	91.22
749.969	91.88
750.277	90.74
750.584	89.06
750.892	90.12
751.199	90.27
751.507	88.97
751.814	87.53
752.122	87.34
752.429	86.18
752.736	87.08
753.044	86
753.351	83.61
753.658	81.69
753.965	80.05
754.272	81.56
754.579	81.51
754.886	82.21
755.193	81.09
755.5	80.08
755.807	81.41
756.114	79.35
756.42	80.14
756.727	82.36
757.034	83.89
757.34	86.11
757.647	85.81
757.953	86.55
758.26	88.02
758.566	84.79
758.872	86.33
759.179	87.4
759.485	88.85
759.791	89.1
760.097	89.64
760.403	88.88
760.709	89.3
761.015	89.82
761.321	93.2
761.627	92.27
761.933	89.57
762.239	92.19
762.545	91.99
762.851	93.27
763.156	96.62
763.462	96.66
763.767	104.92
764.073	105.66
764.378	101.22
764.684	102.64
764.989	101.53
765.295	101.14
765.6	98.29
765.905	103.39
766.21	107.52
766.515	102.47
766.821	104.52
767.126	98.38
767.431	97.05
767.736	101.09
768.041	96.67
768.345	100.33
768.65	104.18
768.955	104.87
769.26	108.08
769.564	111
769.869	109.58
770.174	110.48
770.478	109.72
770.783	104.27
771.087	103.99
771.391	96.83
771.696	94.09
772	97.17
772.304	99.9
772.608	104.49
772.913	109.34
773.217	111.77
773.521	106.96
773.825	103.04
774.129	106.93
774.433	105.58
774.736	107.07
775.04	108.91
775.344	101.38
775.648	105.3
775.951	105.27
776.255	97.13
776.559	90.48
776.862	94.54
777.166	92.91
777.469	90.52
777.772	94.49
778.076	96.47
778.379	96.92
778.682	94.88
778.985	96.91
779.289	98.89
779.592	96.83
779.895	91.26
780.198	94.34
780.501	90.17
780.804	91.12
781.106	90.54
781.409	93.23
781.712	92.81
782.015	89.92
782.317	95.54
782.62	92.67
782.923	99.89
783.225	101.49
783.527	98.29
783.83	109.56
784.132	115.3
784.435	113.52
784.737	115.74
785.039	116.32
785.341	109.29
785.643	108.72
785.945	110.31
786.248	108.82
786.55	106.2
786.851	110.15
787.153	105.6
787.455	98.81
787.757	90.1
788.059	93.19
788.36	91.32
788.662	95.67
788.964	98.51
789.265	96.44
789.567	99.06
789.868	92.2
790.17	96.31
790.471	90.34
790.772	83.74
791.074	85.33
791.375	80.99
791.676	81.65
791.977	78.33
792.278	78.01
792.579	80.03
792.88	78.37
793.181	81.01
793.482	74.97
793.783	74.67
794.083	79.07
794.384	76.15
794.685	81.14
794.986	86.34
795.286	86.3
795.587	81.34
795.887	79.07
796.188	75.63
796.488	74.35
796.788	78.17
797.089	77.9
797.389	75.83
797.689	72.22
797.989	71.23
798.289	76.89
798.589	80.44
798.889	79.52
799.189	79.78
799.489	72.51
799.789	65.75
800.089	64.41
800.389	67.73
800.688	69.62
800.988	80.39
801.288	92.63
801.587	102.99
801.887	102.37
802.186	98.31
802.486	108.33
802.785	116.27
803.085	152.03
803.384	158.84
803.683	184.93
803.982	181.21
804.281	203.07
804.58	205.82
804.879	243.47
805.178	376.58
805.477	768.52
805.776	598.63
806.075	511.85
806.374	633.42
806.673	374.85
806.971	438.54
807.27	551.74
807.569	639.82
807.867	1069.49
808.166	1243.45
808.464	1262.48
808.763	986.65
809.061	663.41
809.359	667.89
809.658	409.36
809.956	661.86
810.254	415.56
810.552	478.93
810.85	551.42
811.148	683.31
811.446	526
811.744	363.56
812.042	344.6
812.34	343.06
812.638	310.43
812.935	307.41
813.233	297.03
813.531	381.35
813.828	255.33
814.126	314.2
814.423	310.04
814.721	405.64
815.018	352.01
815.316	304.81
815.613	389.91
815.91	421.75
816.207	340.64
816.504	303.27
816.802	341.96
817.099	539.32
817.396	452
817.693	454.55
817.99	447.07
818.286	584.85
818.583	430.76
818.88	442.65
819.177	533.1
819.473	373.12
819.77	295.81
820.067	214.09
820.363	171.39
820.66	139.48
820.956	156.11
821.252	184.69
821.549	178.92
821.845	154.02
822.141	155.17
822.437	167.43
822.734	189.07
823.03	177.09
823.326	178.98
823.622	210.05
823.918	181.48
824.213	214
824.509	240.83
824.805	247.24
825.101	259.43
825.397	254.77
825.692	217.45
825.988	229.04
826.283	196.1
826.579	204.51
826.874	227.06
827.17	220.17
827.465	219.93
827.76	347.42
828.056	499.72
828.351	274.06
828.646	253.88
828.941	262.83
829.236	364.27
829.531	409.1
829.826	278.82
830.121	208.94
830.416	193.7
830.711	213.34
831.006	155.99
831.3	179.5
831.595	176.17
831.89	141.43
832.184	165.62
832.479	168.72
832.773	161.44
833.068	158.7
833.362	128.96
833.656	187.15
833.951	171.3
834.245	164.61
834.539	195.43
834.833	233.88
835.127	165.87
835.421	158.25
835.715	153.46
836.009	228.14
836.303	235.26
836.597	178.01
836.891	237.46
837.185	310.39
837.478	762.66
837.772	436.6
838.066	303.59
838.359	510.07
838.653	394.63
838.946	317.56
839.24	277.73
839.533	160.84
839.826	132.31
840.119	151.38
840.413	180.69
840.706	207.18
840.999	164.34
841.292	151.52
841.585	149.45
841.878	138.22
842.171	147.45
842.464	171.98
842.757	217.86
843.049	259.36
843.342	159.44
843.635	123.05
843.927	122.11
844.22	107.39
844.513	107.27
844.805	103.9
845.098	101.97
845.39	115.1
845.682	111.91
845.975	100.03
846.267	107.11
846.559	96.75
846.851	109.38
847.143	129.96
847.435	152.12
847.727	142.45
848.019	152.63
848.311	113.76
848.603	89.15
848.895	92.76
849.186	88
849.478	74.23
849.77	61.19
850.061	40.75
850.353	48.96
850.645	65.7
850.936	74.83
851.227	84.81
851.519	72.06
851.81	67.79
852.101	60.1
852.393	58.09
852.684	53.13
852.975	46.44
853.266	49.59
853.557	37.35
853.848	40.68
854.139	44.05
854.43	36.21
854.72	28.1
855.011	34.19
855.302	35.77
855.593	39.36
855.883	56.21
856.174	36.1
856.464	37.76
856.755	45.3
857.045	66.95
857.336	79.93
857.626	89.36
857.916	89.38
858.206	125.07
858.497	191.04
858.787	187.81
859.077	244.01
859.367	257.37
859.657	189.33
859.947	150.33
860.237	190.3
860.527	187.14
860.816	198.75
861.106	191.18
861.396	183.01
861.685	159.99
861.975	161.95
862.265	207.93
862.554	176.56
862.844	169.9
863.133	151.36
863.422	171.91
863.712	157.77
864.001	132.81
864.29	144.73
864.579	145.71
864.868	127.08
865.157	112.5
865.446	90.33
865.735	68.84
866.024	61.72
866.313	62.89
866.602	70.97
866.891	84.88
867.179	92.11
867.468	78.82
