Data from T2__Reflection__17__00-05-43-847.txt Node

Date: Sat Jun 05 00:05:43 CEST 2021
User: mabdelazizm
Spectrometer: FLMS18565
Trigger mode: 0
Integration Time (sec): 2.000000E0
Scans to average: 1
Electric dark correction enabled: true
Nonlinearity correction enabled: false
Boxcar width: 12
XAxis mode: Wavelengths
Number of Pixels in Spectrum: 2048
>>>>>Begin Spectral Data<<<<<
179.071	97.41
179.452	101.3
179.833	132.69
180.214	136.71
180.595	308.7
180.977	1039.71
181.358	267.48
181.739	262.14
182.12	183.66
182.501	201.57
182.882	230.71
183.262	364.47
183.643	-732.53
184.024	-109.3
184.405	-10.15
184.786	19.58
185.166	33.08
185.547	35.82
185.927	30.54
186.308	17.73
186.689	15.42
187.069	22.66
187.449	21.65
187.83	21.99
188.21	12.3
188.59	12.28
188.971	7.94
189.351	9.64
189.731	8.56
190.111	1.92
190.491	-3.18
190.871	-10.69
191.251	-5.89
191.631	2.9
192.011	3.53
192.391	3.01
192.771	7.26
193.151	8.14
193.531	7.48
193.91	6.13
194.29	8.45
194.67	6.58
195.049	6.71
195.429	5.09
195.808	5.14
196.188	7.4
196.567	6.06
196.946	3.88
197.326	4.09
197.705	7.41
198.084	9.2
198.464	11.12
198.843	10.33
199.222	11.63
199.601	16.3
199.98	17.52
200.359	22.1
200.738	22.28
201.117	17.51
201.496	15.87
201.875	14.44
202.254	12.33
202.632	12.89
203.011	14.11
203.39	14.51
203.768	12.51
204.147	13.02
204.525	11.1
204.904	10.63
205.282	11.17
205.661	10.53
206.039	11.86
206.418	11.11
206.796	11.83
207.174	8.97
207.552	8.57
207.931	7.1
208.309	8.35
208.687	6.52
209.065	5.14
209.443	4.96
209.821	3.47
210.199	1.25
210.577	4.74
210.954	5.14
211.332	4.69
211.71	5.45
212.088	4.73
212.465	1.3
212.843	2.32
213.221	4.74
213.598	4.8
213.976	3.46
214.353	4.57
214.731	3.86
215.108	3.58
215.485	1.69
215.863	-0.12
216.24	-2.3
216.617	-0.34
216.994	-0.07
217.371	-0.52
217.749	-0.19
218.126	0.36
218.503	-0.44
218.88	0.34
219.256	1.41
219.633	2.59
220.01	1.14
220.387	2.67
220.764	3.06
221.14	1.79
221.517	2.6
221.894	2
222.27	1.55
222.647	1.05
223.023	0.82
223.4	1.85
223.776	0.9
224.153	0.89
224.529	1.05
224.905	2
225.282	2.85
225.658	2.96
226.034	2.51
226.41	2.43
226.786	2.74
227.162	2.08
227.538	2.16
227.914	2.11
228.29	1.86
228.666	1.2
229.042	0.84
229.418	1.05
229.793	0.99
230.169	1.2
230.545	1.3
230.92	1.04
231.296	1.35
231.672	1.26
232.047	1.17
232.422	1.14
232.798	1.05
233.173	1.28
233.549	1.39
233.924	1.35
234.299	1.18
234.674	1.13
235.05	1.35
235.425	1.38
235.8	1.33
236.175	1.19
236.55	1.25
236.925	1.31
237.3	1.43
237.675	1.51
238.049	1.6
238.424	1.69
238.799	1.71
239.174	1.78
239.548	1.7
239.923	1.73
240.297	1.66
240.672	1.64
241.046	1.6
241.421	1.62
241.795	1.62
242.17	1.56
242.544	1.58
242.918	1.49
243.293	1.48
243.667	1.44
244.041	1.44
244.415	1.43
244.789	1.4
245.163	1.43
245.537	1.48
245.911	1.51
246.285	1.39
246.659	1.33
247.033	1.31
247.406	1.28
247.78	1.25
248.154	1.26
248.528	1.18
248.901	1.2
249.275	1.2
249.648	1.21
250.022	1.15
250.395	1.22
250.769	1.17
251.142	1.23
251.515	1.21
251.888	1.19
252.262	1.22
252.635	1.15
253.008	1.08
253.381	1.08
253.754	1.04
254.127	1.06
254.5	1.02
254.873	0.98
255.246	0.97
255.619	1.05
255.992	1.08
256.364	1.09
256.737	1.07
257.11	1.08
257.483	1.09
257.855	1.09
258.228	1.09
258.6	1.09
258.973	1.18
259.345	1.28
259.718	1.23
260.09	1.26
260.462	1.24
260.834	1.33
261.207	1.32
261.579	1.3
261.951	1.36
262.323	1.38
262.695	1.48
263.067	1.51
263.439	1.49
263.811	1.52
264.183	1.52
264.555	1.5
264.927	1.44
265.298	1.44
265.67	1.38
266.042	1.42
266.413	1.42
266.785	1.37
267.156	1.37
267.528	1.34
267.899	1.31
268.271	1.23
268.642	1.2
269.013	1.17
269.385	1.14
269.756	1.05
270.127	1.01
270.498	1.01
270.87	1.02
271.241	1.04
271.612	1.06
271.983	0.97
272.354	0.98
272.724	0.97
273.095	0.95
273.466	0.94
273.837	0.96
274.208	1
274.578	1
274.949	0.98
275.32	0.95
275.69	0.95
276.061	1
276.431	1
276.802	1.01
277.172	1
277.542	1.02
277.913	1.06
278.283	1.1
278.653	1.13
279.023	1.19
279.394	1.22
279.764	1.21
280.134	1.17
280.504	1.21
280.874	1.23
281.244	1.23
281.614	1.17
281.983	1.16
282.353	1.16
282.723	1.18
283.093	1.15
283.462	1.09
283.832	1.04
284.202	1.08
284.571	1.07
284.941	1.03
285.31	0.96
285.68	0.98
286.049	0.96
286.418	0.99
286.788	0.94
287.157	0.83
287.526	0.83
287.895	0.77
288.264	0.75
288.633	0.73
289.002	0.69
289.371	0.72
289.74	0.65
290.109	0.64
290.478	0.62
290.847	0.63
291.216	0.6
291.585	0.58
291.953	0.58
292.322	0.62
292.691	0.67
293.059	0.66
293.428	0.65
293.796	0.68
294.165	0.72
294.533	0.72
294.901	0.67
295.27	0.63
295.638	0.57
296.006	0.6
296.374	0.61
296.743	0.58
297.111	0.55
297.479	0.59
297.847	0.56
298.215	0.58
298.583	0.55
298.95	0.57
299.318	0.6
299.686	0.63
300.054	0.61
300.422	0.63
300.789	0.63
301.157	0.55
301.525	0.52
301.892	0.49
302.26	0.5
302.627	0.48
302.994	0.44
303.362	0.42
303.729	0.44
304.097	0.46
304.464	0.55
304.831	0.61
305.198	0.65
305.565	0.67
305.932	0.64
306.299	0.68
306.666	0.71
307.033	0.66
307.4	0.69
307.767	0.73
308.134	0.72
308.501	0.67
308.867	0.65
309.234	0.67
309.601	0.73
309.967	0.72
310.334	0.76
310.701	0.75
311.067	0.75
311.433	0.78
311.8	0.8
312.166	0.8
312.533	0.79
312.899	0.78
313.265	0.75
313.631	0.68
313.997	0.64
314.363	0.58
314.729	0.54
315.096	0.51
315.461	0.54
315.827	0.46
316.193	0.49
316.559	0.47
316.925	0.47
317.291	0.49
317.656	0.45
318.022	0.45
318.388	0.42
318.753	0.35
319.119	0.38
319.484	0.4
319.85	0.41
320.215	0.45
320.581	0.46
320.946	0.43
321.311	0.44
321.676	0.43
322.042	0.42
322.407	0.41
322.772	0.47
323.137	0.46
323.502	0.52
323.867	0.56
324.232	0.59
324.597	0.57
324.962	0.63
325.327	0.61
325.691	0.65
326.056	0.66
326.421	0.62
326.785	0.62
327.15	0.61
327.514	0.6
327.879	0.63
328.243	0.58
328.608	0.61
328.972	0.62
329.337	0.54
329.701	0.56
330.065	0.48
330.429	0.47
330.794	0.43
331.158	0.42
331.522	0.37
331.886	0.38
332.25	0.39
332.614	0.32
332.978	0.23
333.342	0.21
333.705	0.18
334.069	0.15
334.433	0.15
334.797	0.11
335.16	0.15
335.524	0.14
335.887	0.16
336.251	0.18
336.614	0.23
336.978	0.15
337.341	0.17
337.705	0.09
338.068	0.13
338.431	0.22
338.794	0.22
339.158	0.33
339.521	0.35
339.884	0.38
340.247	0.36
340.61	0.4
340.973	0.31
341.336	0.3
341.699	0.31
342.062	0.34
342.424	0.4
342.787	0.37
343.15	0.3
343.512	0.28
343.875	0.31
344.238	0.23
344.6	0.27
344.963	0.24
345.325	0.21
345.688	0.21
346.05	0.23
346.412	0.24
346.775	0.29
347.137	0.27
347.499	0.22
347.861	0.21
348.223	0.1
348.585	0.13
348.947	0.13
349.309	0.15
349.671	0.17
350.033	0.24
350.395	0.27
350.757	0.3
351.118	0.29
351.48	0.28
351.842	0.27
352.203	0.32
352.565	0.28
352.927	0.25
353.288	0.27
353.65	0.22
354.011	0.29
354.372	0.34
354.734	0.28
355.095	0.28
355.456	0.23
355.817	0.15
356.179	0.1
356.54	0.11
356.901	0
357.262	0.05
357.623	-0.01
357.984	0.01
358.345	0.03
358.705	0.03
359.066	0.01
359.427	0.02
359.788	-0.02
360.148	0.04
360.509	0.07
360.87	0.16
361.23	0.21
361.591	0.3
361.951	0.29
362.312	0.28
362.672	0.31
363.032	0.27
363.393	0.21
363.753	0.27
364.113	0.24
364.473	0.24
364.833	0.32
365.193	0.32
365.553	0.33
365.913	0.36
366.273	0.39
366.633	0.41
366.993	0.36
367.353	0.38
367.713	0.39
368.072	0.36
368.432	0.36
368.792	0.37
369.151	0.33
369.511	0.3
369.87	0.26
370.23	0.24
370.589	0.16
370.949	0.17
371.308	0.18
371.667	0.22
372.027	0.2
372.386	0.17
372.745	0.15
373.104	0.25
373.463	0.32
373.822	0.31
374.181	0.31
374.54	0.28
374.899	0.34
375.258	0.35
375.617	0.35
375.975	0.34
376.334	0.29
376.693	0.28
377.052	0.26
377.41	0.23
377.769	0.24
378.127	0.25
378.486	0.26
378.844	0.31
379.202	0.27
379.561	0.32
379.919	0.3
380.277	0.29
380.636	0.25
380.994	0.19
381.352	0.18
381.71	0.17
382.068	0.18
382.426	0.17
382.784	0.19
383.142	0.19
383.5	0.18
383.857	0.12
384.215	0.07
384.573	0.09
384.931	0.09
385.288	0.06
385.646	0.09
386.003	0.07
386.361	0.11
386.718	0.08
387.076	0.11
387.433	0.09
387.791	0.08
388.148	0.12
388.505	0.06
388.862	0.08
389.22	0.06
389.577	0.02
389.934	0.09
390.291	0.17
390.648	0.17
391.005	0.17
391.362	0.21
391.718	0.22
392.075	0.25
392.432	0.25
392.789	0.33
393.145	0.38
393.502	0.39
393.859	0.42
394.215	0.48
394.572	0.46
394.928	0.51
395.285	0.45
395.641	0.49
395.997	0.51
396.354	0.51
396.71	0.49
397.066	0.47
397.422	0.54
397.778	0.5
398.134	0.49
398.491	0.52
398.846	0.5
399.202	0.43
399.558	0.48
399.914	0.41
400.27	0.39
400.626	0.36
400.981	0.32
401.337	0.37
401.693	0.28
402.048	0.26
402.404	0.22
402.759	0.26
403.115	0.29
403.47	0.33
403.826	0.38
404.181	0.36
404.536	0.33
404.892	0.33
405.247	0.34
405.602	0.32
405.957	0.35
406.312	0.33
406.667	0.39
407.022	0.46
407.377	0.47
407.732	0.51
408.087	0.63
408.442	0.62
408.796	0.64
409.151	0.74
409.506	0.7
409.86	0.78
410.215	0.8
410.57	0.91
410.924	0.91
411.279	0.91
411.633	0.9
411.987	0.86
412.342	0.87
412.696	0.82
413.05	0.87
413.404	0.9
413.758	0.95
414.113	1.02
414.467	1.08
414.821	1.1
415.175	1.12
415.529	1.11
415.882	1.14
416.236	1.19
416.59	1.21
416.944	1.18
417.298	1.17
417.651	1.13
418.005	1.05
418.358	1.15
418.712	1.1
419.065	1.11
419.419	1.04
419.772	1.05
420.126	1.03
420.479	1.08
420.832	1.11
421.185	1.17
421.539	1.19
421.892	1.16
422.245	1.19
422.598	1.21
422.951	1.19
423.304	1.14
423.657	1.13
424.01	1.12
424.363	1.17
424.715	1.14
425.068	1.16
425.421	1.2
425.773	1.16
426.126	1.24
426.479	1.29
426.831	1.37
427.184	1.39
427.536	1.45
427.889	1.46
428.241	1.53
428.593	1.52
428.945	1.62
429.298	1.59
429.65	1.64
430.002	1.55
430.354	1.56
430.706	1.64
431.058	1.62
431.41	1.56
431.762	1.51
432.114	1.51
432.466	1.53
432.817	1.55
433.169	1.6
433.521	1.59
433.872	1.61
434.224	1.61
434.576	1.6
434.927	1.54
435.279	1.58
435.63	1.46
435.981	1.42
436.333	1.36
436.684	1.31
437.035	1.34
437.387	1.39
437.738	1.32
438.089	1.3
438.44	1.26
438.791	1.23
439.142	1.23
439.493	1.18
439.844	1.16
440.195	1.22
440.545	1.34
440.896	1.45
441.247	1.43
441.598	1.41
441.948	1.32
442.299	1.29
442.649	1.2
443	1.1
443.35	1.14
443.701	1.1
444.051	1.15
444.401	1.14
444.752	1.11
445.102	1.09
445.452	1.08
445.802	1.07
446.152	1.06
446.502	1.15
446.852	1.16
447.202	1.14
447.552	1.18
447.902	1.18
448.252	1.25
448.602	1.49
448.952	1.41
449.301	1.35
449.651	1.33
450.001	1.41
450.35	1.44
450.7	1.46
451.049	1.47
451.399	1.52
451.748	1.59
452.097	1.58
452.447	1.6
452.796	1.47
453.145	1.62
453.494	1.68
453.843	1.68
454.193	1.75
454.542	1.75
454.891	1.8
455.239	1.82
455.588	1.74
455.937	1.78
456.286	1.81
456.635	1.84
456.984	1.79
457.332	1.53
457.681	1.58
458.03	1.58
458.378	1.57
458.727	1.56
459.075	1.55
459.423	1.67
459.772	1.67
460.12	1.74
460.468	1.86
460.817	2
461.165	2.1
461.513	2.18
461.861	2.23
462.209	2.24
462.557	2.29
462.905	2.27
463.253	2.24
463.601	2.29
463.949	2.28
464.297	2.36
464.644	2.29
464.992	2.26
465.34	2.23
465.687	2.25
466.035	2.28
466.383	2.25
466.73	2.26
467.078	2.25
467.425	2.17
467.772	2.22
468.12	2.06
468.467	2.12
468.814	2.1
469.161	1.95
469.508	1.88
469.856	1.83
470.203	1.78
470.55	1.62
470.897	1.66
471.243	1.66
471.59	1.64
471.937	1.63
472.284	1.55
472.631	1.49
472.977	1.52
473.324	1.61
473.671	1.58
474.017	1.57
474.364	1.55
474.71	1.55
475.057	1.6
475.403	1.53
475.749	1.48
476.096	1.49
476.442	1.59
476.788	1.58
477.134	1.65
477.48	1.59
477.826	1.57
478.172	1.55
478.518	1.54
478.864	1.61
479.21	1.65
479.556	1.61
479.902	1.65
480.248	1.67
480.593	1.68
480.939	1.68
481.285	1.72
481.63	1.7
481.976	1.66
482.321	1.66
482.667	1.64
483.012	1.71
483.357	1.74
483.703	1.78
484.048	1.86
484.393	2
484.738	2.14
485.084	2.12
485.429	2.27
485.774	2.34
486.119	2.45
486.464	2.61
486.808	2.77
487.153	2.9
487.498	3.01
487.843	3.19
488.188	3.38
488.532	3.58
488.877	3.84
489.222	4.07
489.566	4.34
489.911	4.67
490.255	4.97
490.6	5.29
490.944	5.66
491.288	6.02
491.633	6.31
491.977	6.64
492.321	6.95
492.665	7.3
493.009	7.55
493.353	7.86
493.697	8.23
494.041	8.56
494.385	8.78
494.729	9.12
495.073	9.48
495.417	9.84
495.76	10.26
496.104	10.64
496.448	10.95
496.791	11.36
497.135	11.68
497.479	12
497.822	12.36
498.165	12.7
498.509	13.04
498.852	13.37
499.196	13.72
499.539	14.1
499.882	14.41
500.225	14.78
500.568	15.06
500.911	15.4
501.254	15.68
501.597	16.02
501.94	16.21
502.283	16.47
502.626	16.74
502.969	17.07
503.312	17.33
503.654	17.56
503.997	17.76
504.34	18.04
504.682	18.22
505.025	18.46
505.367	18.64
505.71	18.82
506.052	19.01
506.395	19.17
506.737	19.37
507.079	19.45
507.421	19.65
507.764	19.78
508.106	19.84
508.448	19.98
508.79	20.06
509.132	20.22
509.474	20.3
509.816	20.34
510.158	20.34
510.499	20.51
510.841	20.59
511.183	20.69
511.525	20.72
511.866	20.79
512.208	20.81
512.549	20.8
512.891	20.66
513.232	20.66
513.574	20.6
513.915	20.58
514.256	20.6
514.598	20.6
514.939	20.61
515.28	20.59
515.621	20.58
515.962	20.53
516.303	20.59
516.644	20.57
516.985	20.55
517.326	20.51
517.667	20.49
518.008	20.43
518.349	20.46
518.69	20.55
519.03	20.55
519.371	20.53
519.712	20.47
520.052	20.43
520.393	20.47
520.733	20.51
521.074	20.53
521.414	20.56
521.754	20.6
522.095	20.67
522.435	20.63
522.775	20.64
523.115	20.58
523.455	20.53
523.795	20.49
524.135	20.48
524.475	20.51
524.815	20.41
525.155	20.4
525.495	20.41
525.835	20.38
526.175	20.33
526.514	20.3
526.854	20.29
527.194	20.22
527.533	20.12
527.873	20.01
528.212	19.96
528.552	20.06
528.891	20.1
529.23	20.06
529.57	20.06
529.909	20.02
530.248	20.05
530.587	20.02
530.927	20.04
531.266	19.99
531.605	19.92
531.944	19.93
532.283	19.89
532.621	19.9
532.96	19.85
533.299	19.77
533.638	19.69
533.977	19.55
534.315	19.59
534.654	19.42
534.992	19.42
535.331	19.24
535.67	19.25
536.008	19.18
536.346	19.2
536.685	19.19
537.023	19.1
537.361	18.9
537.7	18.87
538.038	18.81
538.376	18.77
538.714	18.77
539.052	18.72
539.39	18.69
539.728	18.68
540.066	18.78
540.404	18.71
540.741	18.68
541.079	18.64
541.417	18.61
541.755	18.68
542.092	18.72
542.43	18.74
542.767	18.63
543.105	18.8
543.442	18.77
543.78	18.79
544.117	18.73
544.454	18.77
544.792	18.74
545.129	18.68
545.466	18.62
545.803	18.66
546.14	18.58
546.477	18.51
546.814	18.56
547.151	18.49
547.488	18.44
547.825	18.43
548.162	18.4
548.499	18.32
548.835	18.39
549.172	18.37
549.509	18.37
549.845	18.27
550.182	18.3
550.518	18.21
550.855	18.19
551.191	18.19
551.528	18.05
551.864	18.01
552.2	18.13
552.537	18.16
552.873	18.23
553.209	18.24
553.545	18.26
553.881	18.37
554.217	18.37
554.553	18.61
554.889	18.76
555.225	18.85
555.561	18.88
555.896	18.99
556.232	19.01
556.568	19.08
556.903	19.23
557.239	19.14
557.575	19.22
557.91	19.19
558.245	19.43
558.581	19.52
558.916	19.62
559.252	19.71
559.587	19.85
559.922	19.93
560.257	20.04
560.592	20.09
560.928	20.15
561.263	20.27
561.598	20.41
561.933	20.41
562.267	20.54
562.602	20.57
562.937	20.51
563.272	20.58
563.607	20.53
563.941	20.72
564.276	20.79
564.611	20.95
564.945	21.03
565.28	21.22
565.614	21.39
565.949	21.53
566.283	21.66
566.617	21.55
566.951	21.62
567.286	21.73
567.62	21.77
567.954	21.97
568.288	22.08
568.622	22.13
568.956	22.14
569.29	22.28
569.624	22.19
569.958	22.24
570.292	22.39
570.626	22.37
570.959	22.47
571.293	22.55
571.627	22.69
571.96	22.85
572.294	22.79
572.627	22.82
572.961	22.92
573.294	22.99
573.627	22.99
573.961	23.09
574.294	23.14
574.627	23.26
574.961	23.44
575.294	23.59
575.627	23.65
575.96	23.85
576.293	23.84
576.626	23.96
576.959	24.09
577.292	24.21
577.624	24.24
577.957	24.35
578.29	24.5
578.623	24.55
578.955	24.62
579.288	24.8
579.62	24.84
579.953	24.83
580.285	24.86
580.618	25.03
580.95	25.19
581.282	25.24
581.615	25.35
581.947	25.53
582.279	25.67
582.611	25.73
582.943	25.83
583.275	25.96
583.607	26.1
583.939	26.29
584.271	26.36
584.603	26.45
584.935	26.46
585.267	26.54
585.598	26.69
585.93	26.8
586.262	26.95
586.593	26.99
586.925	27.13
587.256	27.24
587.588	27.32
587.919	27.45
588.25	27.68
588.582	27.83
588.913	27.96
589.244	28.04
589.575	28.18
589.907	28.25
590.238	28.29
590.569	28.36
590.9	28.49
591.231	28.63
591.562	28.66
591.892	28.68
592.223	28.7
592.554	28.84
592.885	29.02
593.215	29.16
593.546	29.18
593.877	29.27
594.207	29.39
594.538	29.52
594.868	29.68
595.198	29.7
595.529	29.92
595.859	29.93
596.189	30.15
596.52	30.21
596.85	30.3
597.18	30.38
597.51	30.53
597.84	30.61
598.17	30.74
598.5	30.86
598.83	30.98
599.16	31.24
599.489	31.3
599.819	31.58
600.149	31.69
600.479	31.83
600.808	32
601.138	32
601.467	32.24
601.797	32.57
602.126	32.73
602.456	32.95
602.785	33.14
603.114	33.29
603.443	33.52
603.773	33.73
604.102	33.98
604.431	34.07
604.76	34.3
605.089	34.5
605.418	34.7
605.747	34.88
606.076	35.12
606.405	35.32
606.733	35.41
607.062	35.57
607.391	35.62
607.72	35.9
608.048	36.08
608.377	36.27
608.705	36.69
609.034	36.85
609.362	37.19
609.69	37.5
610.019	37.76
610.347	38.04
610.675	38.11
611.004	38.19
611.332	38.38
611.66	38.79
611.988	38.91
612.316	39.11
612.644	39.13
612.972	39.1
613.3	39.33
613.627	39.51
613.955	39.67
614.283	39.86
614.611	40.27
614.938	40.41
615.266	40.71
615.593	41.02
615.921	41.25
616.248	41.53
616.576	41.88
616.903	42.1
617.23	42.59
617.558	43.07
617.885	43.23
618.212	43.39
618.539	43.65
618.866	43.91
619.193	44.49
619.52	44.81
619.847	44.96
620.174	45.13
620.501	45.25
620.828	45.7
621.155	46.18
621.481	46.26
621.808	46.54
622.135	46.85
622.461	47.02
622.788	46.79
623.114	47.54
623.441	47.82
623.767	48.21
624.093	48.53
624.42	48.67
624.746	48.74
625.072	49.2
625.398	49.21
625.725	49.36
626.051	49.5
626.377	49.76
626.703	49.88
627.029	49.99
627.354	50.05
627.68	49.95
628.006	50.1
628.332	50.29
628.658	50.5
628.983	50.87
629.309	51.21
629.634	51.68
629.96	52.2
630.285	52.13
630.611	52.23
630.936	52.44
631.262	52.17
631.587	52.14
631.912	51.93
632.237	51.68
632.562	51.95
632.887	52.5
633.213	52.42
633.538	52.66
633.863	53.03
634.187	53.56
634.512	53.7
634.837	54.09
635.162	54.5
635.487	54.38
635.811	55.06
636.136	55.32
636.461	55.85
636.785	56.31
637.11	56.44
637.434	56.75
637.758	56.7
638.083	57.19
638.407	57.3
638.731	57.33
639.056	57.9
639.38	58.16
639.704	58.66
640.028	58.99
640.352	59.74
640.676	59.82
641	60.01
641.324	60.02
641.648	60.35
641.972	60.45
642.295	60.48
642.619	60.61
642.943	60.47
643.266	60.39
643.59	60.27
643.913	60.4
644.237	60.23
644.56	60.16
644.884	60.22
645.207	60.39
645.53	60.21
645.854	60.21
646.177	59.44
646.5	59.75
646.823	60.16
647.146	60.36
647.469	60.35
647.792	60.28
648.115	60.11
648.438	60.33
648.761	61.58
649.084	62.82
649.406	63.5
649.729	63.65
650.052	63.82
650.374	63.81
650.697	64.01
651.019	64
651.342	64.09
651.664	64.23
651.987	64.24
652.309	64.49
652.631	64.47
652.953	64.6
653.276	64.7
653.598	64.82
653.92	65.01
654.242	65.19
654.564	65.41
654.886	65.47
655.208	65.42
655.53	65.45
655.851	65.41
656.173	65.57
656.495	65.63
656.816	65.27
657.138	64.99
657.46	65.1
657.781	65.59
658.103	66.08
658.424	67.1
658.746	66.55
659.067	66.96
659.388	66.61
659.709	67.09
660.031	66.58
660.352	65.91
660.673	65.96
660.994	66.19
661.315	65.69
661.636	64.95
661.957	65.54
662.278	65.78
662.599	65.39
662.919	64.78
663.24	65.1
663.561	65.45
663.881	65.7
664.202	65.13
664.523	64.64
664.843	64.49
665.164	64.41
665.484	64.54
665.804	63.48
666.125	62.85
666.445	62.36
666.765	62.94
667.085	63.21
667.405	63.49
667.726	63.13
668.046	63.84
668.366	63.27
668.686	63.58
669.005	63.52
669.325	64.06
669.645	64.49
669.965	63.82
670.285	63.46
670.604	63.69
670.924	64.63
671.243	64.39
671.563	63.8
671.882	63.25
672.202	63.57
672.521	63.77
672.841	64.04
673.16	64.92
673.479	64.51
673.798	65.82
674.117	65.8
674.437	65.43
674.756	65.6
675.075	65.16
675.394	64.91
675.713	65.14
676.031	65
676.35	66.29
676.669	65.98
676.988	65.54
677.306	65.65
677.625	66.1
677.944	66.26
678.262	66.28
678.581	66.17
678.899	66.14
679.218	65.82
679.536	66.48
679.854	67.45
680.172	67.59
680.491	67.46
680.809	66.77
681.127	66.62
681.445	66.61
681.763	65.72
682.081	66.13
682.399	67.03
682.717	67.05
683.035	68.08
683.352	68.74
683.67	69.06
683.988	68.88
684.306	68.42
684.623	68.87
684.941	68.89
685.258	68.1
685.576	67.89
685.893	67.94
686.211	68.33
686.528	68.74
686.845	68.24
687.162	68.81
687.48	68.08
687.797	68.34
688.114	69.27
688.431	69.23
688.748	70.32
689.065	70.19
689.382	71.4
689.699	71.55
690.015	71.52
690.332	71.42
690.649	70.99
690.966	70.19
691.282	69.57
691.599	69.4
691.915	69.09
692.232	69.44
692.548	69.68
692.865	69.97
693.181	70.03
693.497	70.68
693.813	70.98
694.13	71.34
694.446	71.03
694.762	70.75
695.078	71.36
695.394	71.98
695.71	71.49
696.026	70.21
696.342	69.96
696.658	68.94
696.973	68.96
697.289	68.19
697.605	67.63
697.92	67.51
698.236	66.45
698.551	67.36
698.867	68.04
699.182	69.21
699.498	68.82
699.813	69.84
700.128	69.27
700.444	68.33
700.759	68.1
701.074	68.59
701.389	68.2
701.704	67.47
702.019	67.51
702.334	67.53
702.649	67.54
702.964	66.97
703.279	66.49
703.594	65.94
703.908	65.57
704.223	65.33
704.538	67.18
704.852	66.34
705.167	66.75
705.481	66.88
705.796	66.14
706.11	66.1
706.425	65.09
706.739	64.1
707.053	64.33
707.368	64.14
707.682	64.62
707.996	65.29
708.31	64.62
708.624	65.22
708.938	65.9
709.252	65.81
709.566	66.28
709.88	65.77
710.193	65.26
710.507	65.86
710.821	65.48
711.135	65.98
711.448	66.54
711.762	67.58
712.075	68.1
712.389	67.64
712.702	69.1
713.015	67.9
713.329	68.64
713.642	69.32
713.955	70.92
714.269	70.72
714.582	70.49
714.895	70.19
715.208	70.48
715.521	69.97
715.834	68.81
716.147	68.83
716.459	68.29
716.772	67.39
717.085	66.55
717.398	65.1
717.71	65.05
718.023	65.21
718.336	65.19
718.648	65.84
718.961	65.96
719.273	65.56
719.585	65.18
719.898	65.88
720.21	64.79
720.522	64.42
720.834	65.69
721.147	65.75
721.459	65.43
721.771	65
722.083	65.47
722.395	64.66
722.707	64.44
723.019	65.44
723.33	64.47
723.642	65.08
723.954	66.83
724.265	66.09
724.577	66.21
724.889	67.86
725.2	69.18
725.512	69.32
725.823	70.22
726.135	69.17
726.446	68.6
726.757	67.68
727.068	68.15
727.38	68.76
727.691	68.31
728.002	68.81
728.313	67.57
728.624	67.64
728.935	68.72
729.246	68.65
729.557	67.78
729.867	67.7
730.178	68.96
730.489	69.21
730.8	68.76
731.11	68.92
731.421	69.84
731.731	69.18
732.042	70.31
732.352	69.71
732.663	68.79
732.973	68.06
733.283	68.35
733.594	68.1
733.904	68.86
734.214	69.57
734.524	70.52
734.834	70.48
735.144	69.65
735.454	69.52
735.764	69.99
736.074	70.51
736.384	69.81
736.694	69.86
737.003	69.39
737.313	69.63
737.623	70.39
737.932	70.64
738.242	70.73
738.551	71.81
738.861	72.59
739.17	72.08
739.479	71.45
739.789	69.82
740.098	71.18
740.407	71.35
740.716	72.02
741.025	72.94
741.334	72.75
741.643	73.16
741.952	72.51
742.261	73.28
742.57	73.08
742.879	74.28
743.188	74.39
743.497	72.41
743.805	73.9
744.114	74.18
744.422	74.6
744.731	77.52
745.04	76.15
745.348	75.97
745.656	76.02
745.965	75.68
746.273	74.09
746.581	75.8
746.889	73.61
747.198	75.14
747.506	76.01
747.814	75.15
748.122	76.01
748.43	75.91
748.738	75.02
749.046	72.26
749.353	72.39
749.661	70.96
749.969	69.19
750.277	67.79
750.584	64.7
750.892	66.59
751.199	67.37
751.507	65.22
751.814	65.53
752.122	63.22
752.429	65.2
752.736	66.63
753.044	67.46
753.351	68.14
753.658	67.56
753.965	66.16
754.272	63.81
754.579	63.84
754.886	63.56
755.193	64.01
755.5	65.83
755.807	65.73
756.114	66.17
756.42	67.56
756.727	71.22
757.034	70.67
757.34	70.57
757.647	71.9
757.953	72.92
758.26	75.5
758.566	73.61
758.872	74.21
759.179	75.86
759.485	75.83
759.791	76.53
760.097	75.28
760.403	74.87
760.709	74.98
761.015	74.16
761.321	74.42
761.627	75.02
761.933	75.95
762.239	76.22
762.545	75.19
762.851	71.47
763.156	70.68
763.462	69.93
763.767	68.07
764.073	66.18
764.378	61.13
764.684	59.9
764.989	62.57
765.295	61.06
765.6	60.2
765.905	59.1
766.21	60.84
766.515	60.94
766.821	62
767.126	61.39
767.431	61.99
767.736	58.76
768.041	61.67
768.345	58.2
768.65	57.39
768.955	53.59
769.26	56.17
769.564	60.21
769.869	59.61
770.174	64.79
770.478	71.39
770.783	69.37
771.087	70.46
771.391	75.26
771.696	75.19
772	85.88
772.304	101.21
772.608	99.04
772.913	105.13
773.217	111.54
773.521	109.94
773.825	108.69
774.129	104.7
774.433	105.12
774.736	102.66
775.04	109.77
775.344	112.43
775.648	102.19
775.951	105.96
776.255	108.42
776.559	106.68
776.862	107.99
777.166	100.92
777.469	107.94
777.772	110.93
778.076	111.65
778.379	112.04
778.682	106.96
778.985	108.43
779.289	111.67
779.592	104.57
779.895	97.96
780.198	103.22
780.501	104.38
780.804	101.44
781.106	102.06
781.409	100.2
781.712	97.99
782.015	91.39
782.317	100.01
782.62	87.12
782.923	78.69
783.225	78.59
783.527	67.02
783.83	62.61
784.132	70.07
784.435	70.39
784.737	73.54
785.039	77.57
785.341	71.79
785.643	62.14
785.945	61.95
786.248	63.35
786.55	59.37
786.851	48.55
787.153	43.85
787.455	40.38
787.757	34.17
788.059	33.2
788.36	23.42
788.662	29.48
788.964	36.6
789.265	46.12
789.567	51.93
789.868	53.62
790.17	52.94
790.471	67.43
790.772	66.4
791.074	78.97
791.375	84.01
791.676	77.69
791.977	77.69
792.278	75.28
792.579	74.19
792.88	77.37
793.181	86.04
793.482	87.37
793.783	96.07
794.083	97.7
794.384	112.17
794.685	119.68
794.986	106.83
795.286	101.44
795.587	99.42
795.887	105.1
796.188	105.02
796.488	92.91
796.788	92.92
797.089	77.52
797.389	60.66
797.689	76.51
797.989	68.67
798.289	83.99
798.589	80.66
798.889	43.84
799.189	25.19
799.489	-7.33
799.789	2.75
800.089	-21.83
800.389	1.39
800.688	6.09
800.988	25
801.288	1.59
801.587	-1.21
801.887	0.56
802.186	-5.15
802.486	-4.71
802.785	-44.36
803.085	-12.98
803.384	7.73
803.683	23.16
803.982	20.02
804.281	24.43
804.58	30.94
804.879	50.52
805.178	43.22
805.477	49.82
805.776	50.81
806.075	38.29
806.374	66.54
806.673	91.19
806.971	85.16
807.27	90.32
807.569	98.52
807.867	105.87
808.166	78.04
808.464	41.51
808.763	69.79
809.061	118.84
809.359	91.94
809.658	79.58
809.956	122.23
810.254	206.66
810.552	-289.08
810.85	-0.65
811.148	39.53
811.446	39.99
811.744	8.36
812.042	11.14
812.34	11.21
812.638	-13.71
812.935	-8.59
813.233	11.32
813.531	21.68
813.828	48.11
814.126	46.99
814.423	41.32
814.721	31.84
815.018	45.1
815.316	51.84
815.613	32.18
815.91	41.06
816.207	37.51
816.504	28.11
816.802	29.64
817.099	58.33
817.396	79.63
817.693	84.33
817.99	108.76
818.286	78.14
818.583	107.06
818.88	452.45
819.177	-1045.27
819.473	-546.91
819.77	-739.2
820.067	-628.98
820.363	-278.67
820.66	-175.8
820.956	-137.83
821.252	-45.86
821.549	-34.97
821.845	-5.28
822.141	-3.3
822.437	4.16
822.734	18.18
823.03	18.61
823.326	31.93
823.622	28.43
823.918	12.33
824.213	16.56
824.509	21.97
824.805	16.63
825.101	8.12
825.397	1.43
825.692	-2.26
825.988	14.28
826.283	29.85
826.579	25.54
826.874	41.16
827.17	50.9
827.465	61.76
827.76	69.36
828.056	73.03
828.351	66.76
828.646	52.89
828.941	90.6
829.236	279.21
829.531	149.17
829.826	50.3
830.121	56.71
830.416	87.54
830.711	90.1
831.006	131.02
831.3	103.83
831.595	87.53
831.89	72.94
832.184	52.73
832.479	-4.84
832.773	20.96
833.068	45.56
833.362	42.37
833.656	61.12
833.951	49.5
834.245	49.66
834.539	47.9
834.833	73.76
835.127	93.91
835.421	80.06
835.715	73.97
836.009	96.69
836.303	198.43
836.597	174.68
836.891	-250.51
837.185	-24.8
837.478	8.94
837.772	73.55
838.066	85.82
838.359	146.4
838.653	69.38
838.946	242.02
839.24	417.45
839.533	153.04
839.826	-404.63
840.119	-323.57
840.413	500.86
840.706	72.95
840.999	67.25
841.292	67.86
841.585	50.99
841.878	0.59
842.171	82.14
842.464	163.46
842.757	154.38
843.049	244.05
843.342	-829.24
843.635	-106.65
843.927	-201.18
844.22	-104.65
844.513	-88.19
844.805	-52.86
845.098	9.55
845.39	13.69
845.682	19.95
845.975	-8.49
846.267	13.03
846.559	-14.66
846.851	3.96
847.143	-27.55
847.435	-46.21
847.727	-93.1
848.019	-99.57
848.311	-103.78
848.603	-238.83
848.895	-238.34
849.186	-346.19
849.478	-290.05
849.77	-444.63
850.061	-602.34
850.353	-934.77
850.645	773.51
850.936	252.99
851.227	2021
851.519	192.28
851.81	131.23
852.101	119.79
852.393	110.51
852.684	127.2
852.975	199.77
853.266	94.76
853.557	103.02
853.848	115.81
854.139	139.22
854.43	128.56
854.72	158.11
855.011	127.19
855.302	98.68
855.593	87.15
855.883	158.52
856.174	79.92
856.464	91.74
856.755	79.2
857.045	86.92
857.336	86.37
857.626	65.44
857.916	57.79
858.206	70.84
858.497	86.76
858.787	106.73
859.077	179.55
859.367	1510.71
859.657	243.25
859.947	148.94
860.237	96.92
860.527	132.06
860.816	132.27
861.106	117.5
861.396	130.68
861.685	143.62
861.975	142.34
862.265	218.69
862.554	311.88
862.844	236.48
863.133	201.42
863.422	413.12
863.712	378.06
864.001	-103
864.29	-45.24
864.579	0.71
864.868	36.76
865.157	13.37
865.446	-17.5
865.735	-38.35
866.024	-41.32
866.313	-106.55
866.602	-73.53
866.891	-50.98
867.179	-5.65
867.468	-2.04
