Data from T2__Reflection__13__23-24-57-954.txt Node

Date: Tue Jun 01 23:24:57 CEST 2021
User: mabdelazizm
Spectrometer: FLMS18565
Trigger mode: 0
Integration Time (sec): 2.000000E0
Scans to average: 1
Electric dark correction enabled: true
Nonlinearity correction enabled: false
Boxcar width: 12
XAxis mode: Wavelengths
Number of Pixels in Spectrum: 2048
>>>>>Begin Spectral Data<<<<<
179.071	66.7
179.452	77.29
179.833	100.86
180.214	111.35
180.595	83.81
180.977	97.76
181.358	139.58
181.739	98.69
182.12	93.36
182.501	77.64
182.882	74.43
183.262	82.63
183.643	163.94
184.024	-13.17
184.405	19.65
184.786	30.37
185.166	25.87
185.547	12.53
185.927	18.68
186.308	12.1
186.689	11.57
187.069	15.68
187.449	9
187.83	0.08
188.21	-2.13
188.59	1.19
188.971	2.83
189.351	6.76
189.731	5.75
190.111	3.34
190.491	4.81
190.871	5.91
191.251	5.32
191.631	5.01
192.011	3.96
192.391	3.98
192.771	3.13
193.151	0.95
193.531	1.19
193.91	3.01
194.29	4.09
194.67	3.66
195.049	3.88
195.429	1.08
195.808	1.84
196.188	1.24
196.567	0.57
196.946	1.4
197.326	2.36
197.705	4.42
198.084	4.83
198.464	4.52
198.843	5.18
199.222	5.53
199.601	5.58
199.98	4.11
200.359	3.5
200.738	3.5
201.117	3.97
201.496	4.48
201.875	4.8
202.254	4.06
202.632	4
203.011	4.03
203.39	2.95
203.768	1.87
204.147	2.84
204.525	2.78
204.904	3.46
205.282	4.07
205.661	4.61
206.039	5.2
206.418	5.88
206.796	6.32
207.174	5.06
207.552	4.81
207.931	4.19
208.309	3.16
208.687	2.64
209.065	2.72
209.443	2.97
209.821	3.11
210.199	2.77
210.577	1.64
210.954	1.66
211.332	1.82
211.71	2.4
212.088	2.24
212.465	1.88
212.843	2.34
213.221	2.33
213.598	1.55
213.976	2.01
214.353	1.87
214.731	1.36
215.108	1.29
215.485	1.24
215.863	0.6
216.24	0.39
216.617	0.44
216.994	0.59
217.371	0.75
217.749	0.93
218.126	1.1
218.503	1.38
218.88	1.45
219.256	1.23
219.633	1.37
220.01	1.64
220.387	1.48
220.764	1.31
221.14	1.06
221.517	1.09
221.894	0.95
222.27	0.91
222.647	1.17
223.023	1.4
223.4	1.7
223.776	1.78
224.153	1.81
224.529	1.58
224.905	1.86
225.282	1.79
225.658	1.75
226.034	1.77
226.41	1.43
226.786	1.66
227.162	1.82
227.538	1.85
227.914	1.62
228.29	1.54
228.666	1.74
229.042	1.89
229.418	2.01
229.793	2.09
230.169	2.07
230.545	2.1
230.92	2.19
231.296	2.27
231.672	2.3
232.047	2.26
232.422	2.26
232.798	2.09
233.173	2.1
233.549	2.21
233.924	2.24
234.299	2.08
234.674	2.04
235.05	2.02
235.425	2.03
235.8	2.05
236.175	2.08
236.55	2.07
236.925	1.99
237.3	1.96
237.675	2.03
238.049	1.95
238.424	1.91
238.799	1.86
239.174	1.85
239.548	1.87
239.923	1.9
240.297	1.84
240.672	1.86
241.046	1.88
241.421	1.89
241.795	1.84
242.17	1.75
242.544	1.79
242.918	1.77
243.293	1.81
243.667	1.82
244.041	1.91
244.415	1.95
244.789	1.94
245.163	2
245.537	1.99
245.911	1.88
246.285	1.93
246.659	1.89
247.033	1.82
247.406	1.86
247.78	1.88
248.154	1.86
248.528	1.85
248.901	1.81
249.275	1.79
249.648	1.85
250.022	1.84
250.395	1.73
250.769	1.75
251.142	1.78
251.515	1.79
251.888	1.72
252.262	1.63
252.635	1.6
253.008	1.57
253.381	1.56
253.754	1.5
254.127	1.47
254.5	1.43
254.873	1.36
255.246	1.37
255.619	1.27
255.992	1.35
256.364	1.37
256.737	1.3
257.11	1.25
257.483	1.25
257.855	1.27
258.228	1.23
258.6	1.23
258.973	1.2
259.345	1.15
259.718	1.15
260.09	1.11
260.462	1.1
260.834	1.13
261.207	1.17
261.579	1.25
261.951	1.23
262.323	1.23
262.695	1.21
263.067	1.27
263.439	1.32
263.811	1.25
264.183	1.24
264.555	1.3
264.927	1.43
265.298	1.38
265.67	1.38
266.042	1.4
266.413	1.41
266.785	1.39
267.156	1.36
267.528	1.41
267.899	1.37
268.271	1.32
268.642	1.32
269.013	1.31
269.385	1.32
269.756	1.33
270.127	1.27
270.498	1.25
270.87	1.2
271.241	1.21
271.612	1.2
271.983	1.21
272.354	1.21
272.724	1.17
273.095	1.23
273.466	1.22
273.837	1.14
274.208	1.12
274.578	1.15
274.949	1.15
275.32	1.16
275.69	1.08
276.061	1.12
276.431	1.13
276.802	1.13
277.172	1.11
277.542	1.13
277.913	1.17
278.283	1.2
278.653	1.17
279.023	1.17
279.394	1.26
279.764	1.24
280.134	1.29
280.504	1.24
280.874	1.23
281.244	1.18
281.614	1.08
281.983	1.14
282.353	1.16
282.723	1.18
283.093	1.3
283.462	1.26
283.832	1.28
284.202	1.29
284.571	1.28
284.941	1.34
285.31	1.33
285.68	1.24
286.049	1.18
286.418	1.21
286.788	1.24
287.157	1.26
287.526	1.27
287.895	1.28
288.264	1.26
288.633	1.21
289.002	1.23
289.371	1.18
289.74	1.22
290.109	1.26
290.478	1.28
290.847	1.31
291.216	1.2
291.585	1.14
291.953	1.08
292.322	1
292.691	0.99
293.059	0.95
293.428	0.96
293.796	0.95
294.165	0.93
294.533	0.88
294.901	0.93
295.27	0.95
295.638	0.95
296.006	0.91
296.374	0.88
296.743	0.83
297.111	0.83
297.479	0.83
297.847	0.81
298.215	0.84
298.583	0.81
298.95	0.79
299.318	0.77
299.686	0.75
300.054	0.79
300.422	0.83
300.789	0.89
301.157	0.97
301.525	0.89
301.892	0.89
302.26	0.88
302.627	0.82
302.994	0.79
303.362	0.8
303.729	0.86
304.097	0.81
304.464	0.84
304.831	0.89
305.198	0.82
305.565	0.84
305.932	0.86
306.299	0.81
306.666	0.83
307.033	0.86
307.4	0.82
307.767	0.82
308.134	0.76
308.501	0.73
308.867	0.74
309.234	0.69
309.601	0.64
309.967	0.63
310.334	0.6
310.701	0.67
311.067	0.56
311.433	0.6
311.8	0.63
312.166	0.68
312.533	0.67
312.899	0.62
313.265	0.68
313.631	0.64
313.997	0.59
314.363	0.64
314.729	0.57
315.096	0.52
315.461	0.52
315.827	0.55
316.193	0.49
316.559	0.52
316.925	0.54
317.291	0.55
317.656	0.52
318.022	0.53
318.388	0.52
318.753	0.5
319.119	0.52
319.484	0.53
319.85	0.52
320.215	0.63
320.581	0.64
320.946	0.62
321.311	0.64
321.676	0.56
322.042	0.52
322.407	0.47
322.772	0.44
323.137	0.44
323.502	0.5
323.867	0.5
324.232	0.54
324.597	0.59
324.962	0.48
325.327	0.5
325.691	0.5
326.056	0.54
326.421	0.57
326.785	0.58
327.15	0.53
327.514	0.51
327.879	0.5
328.243	0.42
328.608	0.39
328.972	0.42
329.337	0.32
329.701	0.21
330.065	0.18
330.429	0.1
330.794	0.2
331.158	0.23
331.522	0.23
331.886	0.29
332.25	0.29
332.614	0.25
332.978	0.25
333.342	0.27
333.705	0.27
334.069	0.36
334.433	0.34
334.797	0.38
335.16	0.32
335.524	0.29
335.887	0.27
336.251	0.28
336.614	0.4
336.978	0.53
337.341	0.51
337.705	0.54
338.068	0.55
338.431	0.64
338.794	0.71
339.158	0.68
339.521	0.74
339.884	0.8
340.247	0.8
340.61	0.8
340.973	0.82
341.336	0.88
341.699	0.9
342.062	0.86
342.424	0.82
342.787	0.83
343.15	0.81
343.512	0.87
343.875	0.73
344.238	0.7
344.6	0.74
344.963	0.83
345.325	0.87
345.688	0.82
346.05	0.68
346.412	0.75
346.775	0.72
347.137	0.7
347.499	0.67
347.861	0.62
348.223	0.65
348.585	0.6
348.947	0.47
349.309	0.5
349.671	0.52
350.033	0.53
350.395	0.45
350.757	0.37
351.118	0.43
351.48	0.34
351.842	0.3
352.203	0.27
352.565	0.16
352.927	0.24
353.288	0.16
353.65	0.09
354.011	0.09
354.372	0.08
354.734	0.02
355.095	0.03
355.456	0.05
355.817	-0.06
356.179	-0.07
356.54	-0.11
356.901	-0.08
357.262	-0
357.623	0
357.984	0.06
358.345	0.03
358.705	-0
359.066	-0.06
359.427	0.01
359.788	0.02
360.148	0.03
360.509	0.17
360.87	0.12
361.23	0.12
361.591	0.2
361.951	0.18
362.312	0.25
362.672	0.32
363.032	0.26
363.393	0.24
363.753	0.19
364.113	0.21
364.473	0.2
364.833	0.33
365.193	0.37
365.553	0.42
365.913	0.43
366.273	0.39
366.633	0.39
366.993	0.41
367.353	0.37
367.713	0.34
368.072	0.34
368.432	0.33
368.792	0.38
369.151	0.42
369.511	0.35
369.87	0.4
370.23	0.42
370.589	0.45
370.949	0.44
371.308	0.44
371.667	0.38
372.027	0.3
372.386	0.25
372.745	0.3
373.104	0.34
373.463	0.34
373.822	0.29
374.181	0.23
374.54	0.21
374.899	0.15
375.258	0.15
375.617	0.08
375.975	0.07
376.334	0.14
376.693	0.18
377.052	0.22
377.41	0.24
377.769	0.14
378.127	-0
378.486	0.05
378.844	0.06
379.202	0.09
379.561	0.01
379.919	-0.03
380.277	-0.02
380.636	0.05
380.994	0.19
381.352	0.18
381.71	0.28
382.068	0.23
382.426	0.2
382.784	0.15
383.142	0.21
383.5	0.27
383.857	0.36
384.215	0.35
384.573	0.5
384.931	0.5
385.288	0.44
385.646	0.48
386.003	0.47
386.361	0.38
386.718	0.48
387.076	0.57
387.433	0.47
387.791	0.41
388.148	0.34
388.505	0.35
388.862	0.43
389.22	0.52
389.577	0.47
389.934	0.33
390.291	0.41
390.648	0.4
391.005	0.42
391.362	0.46
391.718	0.53
392.075	0.5
392.432	0.45
392.789	0.44
393.145	0.47
393.502	0.36
393.859	0.3
394.215	0.37
394.572	0.41
394.928	0.34
395.285	0.37
395.641	0.34
395.997	0.41
396.354	0.46
396.71	0.44
397.066	0.47
397.422	0.42
397.778	0.37
398.134	0.32
398.491	0.39
398.846	0.4
399.202	0.43
399.558	0.34
399.914	0.39
400.27	0.3
400.626	0.21
400.981	0.24
401.337	0.19
401.693	0.23
402.048	0.17
402.404	0.21
402.759	0.2
403.115	0.19
403.47	0.14
403.826	0.2
404.181	0.22
404.536	0.18
404.892	0.06
405.247	0.11
405.602	0.19
405.957	0.29
406.312	0.33
406.667	0.35
407.022	0.4
407.377	0.45
407.732	0.54
408.087	0.51
408.442	0.53
408.796	0.48
409.151	0.54
409.506	0.56
409.86	0.52
410.215	0.57
410.57	0.49
410.924	0.47
411.279	0.41
411.633	0.45
411.987	0.43
412.342	0.41
412.696	0.45
413.05	0.44
413.404	0.47
413.758	0.57
414.113	0.5
414.467	0.51
414.821	0.37
415.175	0.38
415.529	0.42
415.882	0.38
416.236	0.34
416.59	0.39
416.944	0.43
417.298	0.51
417.651	0.52
418.005	0.5
418.358	0.59
418.712	0.71
419.065	0.75
419.419	0.78
419.772	0.86
420.126	0.98
420.479	1.05
420.832	1.22
421.185	1.31
421.539	1.3
421.892	1.31
422.245	1.33
422.598	1.28
422.951	1.34
423.304	1.35
423.657	1.34
424.01	1.38
424.363	1.37
424.715	1.38
425.068	1.37
425.421	1.28
425.773	1.31
426.126	1.4
426.479	1.51
426.831	1.62
427.184	1.61
427.536	1.71
427.889	1.73
428.241	1.81
428.593	1.8
428.945	1.79
429.298	1.79
429.65	1.7
430.002	1.77
430.354	1.81
430.706	1.92
431.058	2.05
431.41	2.1
431.762	2.1
432.114	2.1
432.466	2.12
432.817	2.12
433.169	2.17
433.521	2.1
433.872	2.06
434.224	2.13
434.576	2.09
434.927	1.92
435.279	1.92
435.63	1.87
435.981	1.88
436.333	1.76
436.684	1.67
437.035	1.58
437.387	1.71
437.738	1.73
438.089	1.78
438.44	1.84
438.791	1.77
439.142	1.76
439.493	1.74
439.844	1.7
440.195	1.75
440.545	1.88
440.896	1.86
441.247	1.93
441.598	2.09
441.948	2.05
442.299	2.02
442.649	1.99
443	1.97
443.35	1.95
443.701	2.02
444.051	2
444.401	1.98
444.752	1.96
445.102	1.82
445.452	1.96
445.802	2.02
446.152	1.91
446.502	1.92
446.852	1.77
447.202	1.73
447.552	1.76
447.902	1.84
448.252	1.81
448.602	1.69
448.952	1.63
449.301	1.6
449.651	1.65
450.001	1.65
450.35	1.46
450.7	1.54
451.049	1.7
451.399	1.74
451.748	1.88
452.097	2.01
452.447	1.98
452.796	1.91
453.145	1.99
453.494	2.18
453.843	2.31
454.193	2.26
454.542	2.34
454.891	2.36
455.239	2.34
455.588	2.61
455.937	2.69
456.286	2.66
456.635	2.58
456.984	2.62
457.332	2.85
457.681	2.98
458.03	3.03
458.378	3.1
458.727	3.34
459.075	3.48
459.423	3.49
459.772	3.46
460.12	3.62
460.468	3.58
460.817	3.55
461.165	3.68
461.513	3.81
461.861	3.85
462.209	3.71
462.557	3.65
462.905	3.67
463.253	3.54
463.601	3.6
463.949	3.66
464.297	3.52
464.644	3.61
464.992	3.67
465.34	3.69
465.687	3.62
466.035	3.53
466.383	3.56
466.73	3.49
467.078	3.42
467.425	3.36
467.772	3.34
468.12	3.33
468.467	3.37
468.814	3.23
469.161	3.22
469.508	3.2
469.856	3.11
470.203	2.99
470.55	2.98
470.897	3
471.243	2.96
471.59	2.98
471.937	2.98
472.284	2.95
472.631	2.88
472.977	3
473.324	2.78
473.671	2.73
474.017	2.69
474.364	2.67
474.71	2.68
475.057	2.6
475.403	2.58
475.749	2.59
476.096	2.46
476.442	2.34
476.788	2.28
477.134	2.32
477.48	2.36
477.826	2.29
478.172	2.27
478.518	2.23
478.864	2.32
479.21	2.25
479.556	2.2
479.902	2.29
480.248	2.25
480.593	2.22
480.939	2.29
481.285	2.33
481.63	2.2
481.976	2.34
482.321	2.37
482.667	2.48
483.012	2.52
483.357	2.53
483.703	2.68
484.048	2.78
484.393	2.9
484.738	3.06
485.084	3.24
485.429	3.42
485.774	3.55
486.119	3.76
486.464	3.92
486.808	4.09
487.153	4.33
487.498	4.41
487.843	4.59
488.188	4.89
488.532	5.12
488.877	5.36
489.222	5.72
489.566	5.94
489.911	6.2
490.255	6.6
490.6	6.86
490.944	7.17
491.288	7.48
491.633	7.82
491.977	8.2
492.321	8.46
492.665	8.83
493.009	9.23
493.353	9.6
493.697	10.03
494.041	10.41
494.385	10.82
494.729	11.23
495.073	11.69
495.417	12.11
495.76	12.55
496.104	13.16
496.448	13.73
496.791	14.23
497.135	14.75
497.479	15.4
497.822	16.04
498.165	16.63
498.509	17.25
498.852	17.91
499.196	18.5
499.539	19.17
499.882	19.85
500.225	20.58
500.568	21.28
500.911	21.98
501.254	22.68
501.597	23.3
501.94	23.99
502.283	24.67
502.626	25.4
502.969	26.1
503.312	26.85
503.654	27.68
503.997	28.53
504.34	29.35
504.682	30.14
505.025	30.91
505.367	31.65
505.71	32.46
506.052	33.15
506.395	33.77
506.737	34.42
507.079	35.12
507.421	35.74
507.764	36.63
508.106	37.34
508.448	38.04
508.79	38.68
509.132	39.33
509.474	40.01
509.816	40.6
510.158	41.3
510.499	42.09
510.841	42.72
511.183	43.36
511.525	44
511.866	44.54
512.208	45.02
512.549	45.43
512.891	46.03
513.232	46.54
513.574	47.17
513.915	47.9
514.256	48.5
514.598	49.04
514.939	49.71
515.28	50.33
515.621	51
515.962	51.65
516.303	52.03
516.644	52.45
516.985	52.87
517.326	53.31
517.667	53.79
518.008	54.19
518.349	54.73
518.69	55.08
519.03	55.3
519.371	55.69
519.712	56.02
520.052	56.34
520.393	56.7
520.733	57.03
521.074	57.55
521.414	57.91
521.754	58.18
522.095	58.48
522.435	58.51
522.775	58.81
523.115	59.17
523.455	59.3
523.795	59.57
524.135	59.72
524.475	59.89
524.815	60.15
525.155	60.56
525.495	60.7
525.835	60.91
526.175	61.04
526.514	61.31
526.854	61.43
527.194	61.77
527.533	61.92
527.873	62.1
528.212	62.42
528.552	62.75
528.891	62.9
529.23	63.16
529.57	63.34
529.909	63.45
530.248	63.74
530.587	63.84
530.927	63.99
531.266	64.3
531.605	64.37
531.944	64.46
532.283	64.61
532.621	64.74
532.96	64.93
533.299	65.24
533.638	65.13
533.977	65.3
534.315	65.48
534.654	65.55
534.992	65.54
535.331	65.62
535.67	65.56
536.008	65.62
536.346	65.74
536.685	65.68
537.023	65.79
537.361	65.95
537.7	66.04
538.038	66.11
538.376	66.02
538.714	65.91
539.052	65.77
539.39	66
539.728	65.81
540.066	65.88
540.404	66.09
540.741	65.97
541.079	65.98
541.417	66.06
541.755	65.88
542.092	66.01
542.43	65.93
542.767	65.95
543.105	65.95
543.442	66.04
543.78	66.22
544.117	66.35
544.454	66.61
544.792	66.44
545.129	66.41
545.466	66.3
545.803	66.21
546.14	66.31
546.477	66.37
546.814	66.56
547.151	66.71
547.488	66.95
547.825	66.84
548.162	66.72
548.499	66.68
548.835	66.67
549.172	66.79
549.509	67.05
549.845	67.08
550.182	67.24
550.518	67.39
550.855	67.65
551.191	67.43
551.528	67.58
551.864	67.63
552.2	67.61
552.537	67.7
552.873	67.73
553.209	67.89
553.545	68.02
553.881	68.09
554.217	68.39
554.553	68.47
554.889	68.53
555.225	68.24
555.561	68.35
555.896	68.51
556.232	68.67
556.568	68.91
556.903	68.96
557.239	69.12
557.575	69.28
557.91	69.24
558.245	69.32
558.581	69.24
558.916	69.3
559.252	69.26
559.587	69.68
559.922	69.71
560.257	69.76
560.592	69.6
560.928	69.66
561.263	69.48
561.598	69.68
561.933	69.5
562.267	69.75
562.602	69.64
562.937	69.5
563.272	69.52
563.607	69.69
563.941	69.68
564.276	69.65
564.611	69.77
564.945	69.78
565.28	69.92
565.614	69.92
565.949	70.02
566.283	70.01
566.617	69.94
566.951	70.07
567.286	70.1
567.62	70.17
567.954	70.06
568.288	70.15
568.622	70.13
568.956	70.3
569.29	70.24
569.624	70.45
569.958	70.42
570.292	70.5
570.626	70.38
570.959	70.43
571.293	70.49
571.627	70.42
571.96	70.46
572.294	70.44
572.627	70.33
572.961	70.28
573.294	70.31
573.627	70.28
573.961	70.35
574.294	70.27
574.627	70.2
574.961	70.21
575.294	70.13
575.627	70.04
575.96	69.99
576.293	70.06
576.626	70.07
576.959	70.07
577.292	70.03
577.624	70.08
577.957	70.02
578.29	70
578.623	70.08
578.955	70.13
579.288	70.1
579.62	70.1
579.953	70.17
580.285	70.36
580.618	70.48
580.95	70.61
581.282	70.66
581.615	70.73
581.947	70.79
582.279	70.8
582.611	70.87
582.943	70.93
583.275	71.13
583.607	71.22
583.939	71.36
584.271	71.43
584.603	71.32
584.935	71.28
585.267	71.39
585.598	71.42
585.93	71.31
586.262	71.38
586.593	71.3
586.925	71.3
587.256	71.3
587.588	71.26
587.919	71.35
588.25	71.37
588.582	71.31
588.913	71.39
589.244	71.33
589.575	71.24
589.907	71.18
590.238	71.15
590.569	71.09
590.9	71.14
591.231	71.23
591.562	70.98
591.892	71.01
592.223	70.94
592.554	70.91
592.885	71.1
593.215	71.23
593.546	71.27
593.877	71.08
594.207	71.12
594.538	71.32
594.868	71.64
595.198	71.79
595.529	71.87
595.859	72.02
596.189	72.05
596.52	72.11
596.85	72
597.18	71.95
597.51	71.88
597.84	72.05
598.17	72.13
598.5	72.11
598.83	72.2
599.16	72.32
599.489	72.26
599.819	72.22
600.149	72.24
600.479	72.14
600.808	72.08
601.138	72.01
601.467	71.88
601.797	71.85
602.126	72
602.456	72.05
602.785	71.72
603.114	71.43
603.443	71.33
603.773	71.26
604.102	71.24
604.431	71.2
604.76	71.06
605.089	71.14
605.418	71.11
605.747	71.43
606.076	71.55
606.405	71.46
606.733	71.56
607.062	71.5
607.391	71.45
607.72	71.42
608.048	71.69
608.377	71.63
608.705	71.8
609.034	71.76
609.362	71.75
609.69	71.91
610.019	71.87
610.347	71.91
610.675	71.91
611.004	71.92
611.332	72.01
611.66	71.93
611.988	71.95
612.316	71.88
612.644	71.74
612.972	71.66
613.3	71.68
613.627	71.74
613.955	71.57
614.283	71.39
614.611	71.5
614.938	71.26
615.266	71.1
615.593	70.86
615.921	70.72
616.248	70.45
616.576	70.44
616.903	70.4
617.23	70.82
617.558	70.95
617.885	71
618.212	70.91
618.539	71.02
618.866	71.02
619.193	71.19
619.52	71.1
619.847	70.99
620.174	70.79
620.501	70.64
620.828	70.45
621.155	70.66
621.481	70.3
621.808	69.95
622.135	69.79
622.461	69.82
622.788	69.79
623.114	69.8
623.441	69.99
623.767	69.94
624.093	70.25
624.42	70.69
624.746	70.85
625.072	71.16
625.398	71.29
625.725	71.18
626.051	70.82
626.377	71.34
626.703	71.05
627.029	71.04
627.354	70.93
627.68	71.13
628.006	71.25
628.332	70.94
628.658	70.92
628.983	71.12
629.309	71.31
629.634	71.99
629.96	72.01
630.285	71.83
630.611	71.51
630.936	71.42
631.262	71.71
631.587	71.66
631.912	71.79
632.237	71.59
632.562	71.09
632.887	71.05
633.213	70.64
633.538	69.94
633.863	70.07
634.187	70.29
634.512	69.7
634.837	70.05
635.162	70.18
635.487	70.28
635.811	70.18
636.136	70.34
636.461	70.6
636.785	70.73
637.11	70.57
637.434	70.46
637.758	70.12
638.083	70.12
638.407	70.12
638.731	70.26
639.056	69.92
639.38	69.55
639.704	69.15
640.028	69.65
640.352	69.92
640.676	70.38
641	70.13
641.324	70.1
641.648	70.17
641.972	70.33
642.295	70.36
642.619	71.1
642.943	71.54
643.266	71.77
643.59	71.49
643.913	71
644.237	71.17
644.56	71.6
644.884	71.5
645.207	71.65
645.53	71.71
645.854	71.84
646.177	72.07
646.5	71.91
646.823	71.56
647.146	71.67
647.469	71.49
647.792	71.55
648.115	71.37
648.438	70.87
648.761	70.96
649.084	70.94
649.406	70.69
649.729	70.33
650.052	70.17
650.374	70.22
650.697	69.88
651.019	69.67
651.342	69.32
651.664	69.34
651.987	69.56
652.309	69.47
652.631	69.45
652.953	69.62
653.276	69.52
653.598	69.4
653.92	69.44
654.242	69.4
654.564	69.6
654.886	69.57
655.208	69.82
655.53	70.01
655.851	70.28
656.173	70.22
656.495	70.42
656.816	70.26
657.138	70.44
657.46	70.69
657.781	71.65
658.103	72.33
658.424	72.46
658.746	73.44
659.067	74.2
659.388	75.31
659.709	75.13
660.031	74.8
660.352	74.87
660.673	74.53
660.994	74.43
661.315	75.47
661.636	75.99
661.957	75.38
662.278	75.72
662.599	74.65
662.919	74.33
663.24	73.29
663.561	73.85
663.881	73.51
664.202	73.37
664.523	71.88
664.843	71.46
665.164	70.86
665.484	71.22
665.804	70.91
666.125	71.29
666.445	70.44
666.765	69.42
667.085	68.94
667.405	69.18
667.726	69.21
668.046	69.56
668.366	69.53
668.686	70.66
669.005	70.66
669.325	69.98
669.645	69.66
669.965	70.12
670.285	70.06
670.604	71.05
670.924	71.86
671.243	72.26
671.563	71.3
671.882	71.55
672.202	71.29
672.521	71.87
672.841	71.42
673.16	71.2
673.479	70.35
673.798	70.26
674.117	69.57
674.437	70.11
674.756	70.29
675.075	70.23
675.394	69.6
675.713	69.96
676.031	69.8
676.35	70.9
676.669	70
676.988	70.56
677.306	71.17
677.625	70.81
677.944	70.76
678.262	70.41
678.581	70.67
678.899	70.15
679.218	69.5
679.536	69.69
679.854	68.5
680.172	68.7
680.491	68.71
680.809	69.5
681.127	69.25
681.445	70.05
681.763	70.45
682.081	70.44
682.399	70.87
682.717	71.06
683.035	71.69
683.352	71.7
683.67	71.78
683.988	71.61
684.306	70.71
684.623	70.77
684.941	70.38
685.258	70.54
685.576	71.61
685.893	71.68
686.211	72.06
686.528	71.94
686.845	72.57
687.162	73.3
687.48	74.19
687.797	75.46
688.114	75.69
688.431	76.24
688.748	76.16
689.065	76.57
689.382	75.91
689.699	76
690.015	75.63
690.332	75.06
690.649	74.83
690.966	74.33
691.282	73.94
691.599	73.65
691.915	73.78
692.232	73.39
692.548	73.33
692.865	73.97
693.181	73.21
693.497	73.17
693.813	72.95
694.13	73.11
694.446	72.86
694.762	72.46
695.078	72.45
695.394	72.49
695.71	72.73
696.026	72.26
696.342	72.55
696.658	71.98
696.973	71.82
697.289	72.29
697.605	71.76
697.92	72.64
698.236	72.35
698.551	72.09
698.867	71.83
699.182	72.06
699.498	72.18
699.813	73.48
700.128	74.2
700.444	74.98
700.759	73.95
701.074	74.51
701.389	73.19
701.704	73.25
702.019	72.96
702.334	72.55
702.649	72.73
702.964	72.05
703.279	71.72
703.594	71.58
703.908	72.66
704.223	72.54
704.538	73.96
704.852	73.47
705.167	72.39
705.481	72.72
705.796	71.78
706.11	71.96
706.425	72.86
706.739	72.38
707.053	73.36
707.368	72.6
707.682	71.93
707.996	71.34
708.31	71.39
708.624	72.46
708.938	72.39
709.252	72.85
709.566	72.58
709.88	72.48
710.193	72.94
710.507	72.43
710.821	72.36
711.135	71.76
711.448	71.55
711.762	69.78
712.075	69.92
712.389	68.88
712.702	69.11
713.015	69.13
713.329	68.83
713.642	69.62
713.955	69.41
714.269	69.57
714.582	69.42
714.895	68.38
715.208	70.06
715.521	69.52
715.834	68.75
716.147	67.74
716.459	66.16
716.772	67.06
717.085	67.22
717.398	68.97
717.71	68.84
718.023	69.16
718.336	70.49
718.648	70.09
718.961	69.4
719.273	69.32
719.585	69.66
719.898	68.75
720.21	68.45
720.522	68.32
720.834	69.82
721.147	71.02
721.459	71.46
721.771	72.26
722.083	72.2
722.395	73.32
722.707	73.52
723.019	72.26
723.33	75.17
723.642	78.53
723.954	78.89
724.265	79.37
724.577	77.32
724.889	77.17
725.2	76.15
725.512	76.6
725.823	76.53
726.135	77.16
726.446	76.98
726.757	77.76
727.068	77.38
727.38	76.38
727.691	75.57
728.002	75.5
728.313	76.13
728.624	75.91
728.935	74.16
729.246	72.37
729.557	71.86
729.867	71.16
730.178	70.76
730.489	71.39
730.8	71.79
731.11	69.26
731.421	68.04
731.731	67.72
732.042	67.92
732.352	67.63
732.663	68.44
732.973	68.66
733.283	67.99
733.594	67.99
733.904	67.01
734.214	67.78
734.524	69.18
734.834	70.47
735.144	72.63
735.454	74.3
735.764	74.42
736.074	75.46
736.384	75.16
736.694	76.38
737.003	78.02
737.313	78.33
737.623	79.45
737.932	79.1
738.242	78.31
738.551	78.47
738.861	80.76
739.17	81.6
739.479	81.29
739.789	80.58
740.098	82.27
740.407	81.5
740.716	81.86
741.025	81.14
741.334	80.86
741.643	81.06
741.952	83.42
742.261	82.7
742.57	79.61
742.879	78.34
743.188	77.47
743.497	79.1
743.805	77.49
744.114	77.58
744.422	79.93
744.731	78.65
745.04	78.05
745.348	78.13
745.656	79.88
745.965	81.42
746.273	82.59
746.581	81.05
746.889	78.94
747.198	81.92
747.506	83.16
747.814	83.1
748.122	83.59
748.43	85.19
748.738	87.14
749.046	88.5
749.353	87.59
749.661	85.2
749.969	84.52
750.277	85.7
750.584	86.35
750.892	86.7
751.199	85.72
751.507	86.12
751.814	88.45
752.122	86.71
752.429	86.48
752.736	86.46
753.044	84.13
753.351	81.05
753.658	80.39
753.965	79.09
754.272	79.67
754.579	81.41
754.886	83.34
755.193	81.82
755.5	80.74
755.807	80.15
756.114	74.82
756.42	73.39
756.727	73.86
757.034	77.56
757.34	78.46
757.647	77.62
757.953	75.21
758.26	72.13
758.566	70.55
758.872	70.3
759.179	70.43
759.485	67.57
759.791	67.98
760.097	70.21
760.403	71.37
760.709	70.07
761.015	71.81
761.321	73.95
761.627	74.51
761.933	73.34
762.239	71.61
762.545	70.78
762.851	69.84
763.156	73.73
763.462	71.05
763.767	72.21
764.073	76.11
764.378	74.9
764.684	71.77
764.989	72.8
765.295	71.26
765.6	73.68
765.905	78.3
766.21	78.71
766.515	77.88
766.821	75.9
767.126	78.72
767.431	82.69
767.736	85.29
768.041	85.37
768.345	88.64
768.65	93.77
768.955	93.75
769.26	94.98
769.564	95.51
769.869	95.37
770.174	92.68
770.478	95.02
770.783	93.35
771.087	97.74
771.391	108.51
771.696	100.76
772	101.95
772.304	104.24
772.608	102.1
772.913	103.94
773.217	110.29
773.521	102.63
773.825	106.73
774.129	111.15
774.433	110.5
774.736	107.32
775.04	108.22
775.344	103.91
775.648	97.8
775.951	98.36
776.255	91.88
776.559	86.89
776.862	86.01
777.166	84.25
777.469	85.04
777.772	88.27
778.076	85.08
778.379	82.7
778.682	77.5
778.985	73.95
779.289	76.51
779.592	81.72
779.895	82.78
780.198	81.42
780.501	83.76
780.804	73.53
781.106	82.2
781.409	79.11
781.712	90.22
782.015	91.16
782.317	93.27
782.62	84.25
782.923	77.8
783.225	76.9
783.527	76.77
783.83	67.74
784.132	66.94
784.435	66.27
784.737	80.48
785.039	80.51
785.341	81.13
785.643	93.11
785.945	79.75
786.248	86.34
786.55	84.76
786.851	91.79
787.153	85.46
787.455	81.79
787.757	91.59
788.059	95.39
788.36	99.29
788.662	86.03
788.964	84.95
789.265	69.62
789.567	75.87
789.868	73.31
790.17	64.8
790.471	79.02
790.772	78.08
791.074	73.9
791.375	81.46
791.676	88.02
791.977	79.57
792.278	60.15
792.579	61.54
792.88	62.2
793.181	55.37
793.482	70.83
793.783	76.96
794.083	72.89
794.384	70.36
794.685	60.22
794.986	61.09
795.286	47.39
795.587	52.42
795.887	54.27
796.188	47.05
796.488	43.43
796.788	29.51
797.089	14.18
797.389	19.41
797.689	32.09
797.989	17.69
798.289	30.07
798.589	31.8
798.889	13.95
799.189	-57.69
799.489	-51.33
799.789	-29.64
800.089	-9.87
800.389	-37.18
800.688	-16.59
800.988	-65.37
801.288	-89.41
801.587	-89.19
801.887	-95.71
802.186	-85.49
802.486	-84.06
802.785	-216.02
803.085	-197.03
803.384	-267.71
803.683	-123.81
803.982	-107.87
804.281	-114.5
804.58	-336.62
804.879	444.38
805.178	-508.33
805.477	-225.82
805.776	-644.01
806.075	-100.74
806.374	-10.56
806.673	29.81
806.971	-49.87
807.27	-0.41
807.569	-4.15
807.867	78.33
808.166	29.2
808.464	72.95
808.763	46.11
809.061	60.35
809.359	43.85
809.658	79.63
809.956	83.08
810.254	119.25
810.552	90.01
810.85	74.91
811.148	54.09
811.446	72.39
811.744	51.92
812.042	58.28
812.34	55.65
812.638	34.78
812.935	36.3
813.233	24.54
813.531	30.91
813.828	-1.5
814.126	16.6
814.423	44.52
814.721	40.26
815.018	32.57
815.316	29.48
815.613	28.6
815.91	7.64
816.207	70.27
816.504	52.34
816.802	63.02
817.099	89.38
817.396	58.83
817.693	26.94
817.99	37.15
818.286	58.98
818.583	60.02
818.88	74.2
819.177	94.1
819.473	60.28
819.77	93.02
820.067	96.04
820.363	127.53
820.66	161.86
820.956	116.51
821.252	109.13
821.549	89.68
821.845	69.01
822.141	61.76
822.437	66.38
822.734	55.27
823.03	54.33
823.326	64.09
823.622	49.3
823.918	68.54
824.213	60.22
824.509	45.29
824.805	68.2
825.101	106.87
825.397	87.82
825.692	84.26
825.988	85.54
826.283	75.67
826.579	55.96
826.874	63.88
827.17	41.6
827.465	40.92
827.76	31.43
828.056	27.74
828.351	34.99
828.646	38.95
828.941	28.96
829.236	37.17
829.531	28.25
829.826	16.7
830.121	16.39
830.416	14.81
830.711	22.34
831.006	-7.29
831.3	-41.38
831.595	-38.68
831.89	-26.1
832.184	-20.3
832.479	-55.1
832.773	-48.85
833.068	-47.91
833.362	-54.08
833.656	-56.87
833.951	-99.44
834.245	-71.17
834.539	-111.65
834.833	0.95
835.127	-275
835.421	-50.86
835.715	5.9
836.009	67.58
836.303	57.96
836.597	133.3
836.891	217.94
837.185	36.58
837.478	-88.22
837.772	220.96
838.066	119.46
838.359	176.57
838.653	253.19
838.946	647.33
839.24	264.7
839.533	775.91
839.826	1596.43
840.119	-5186.11
840.413	4125
840.706	-2451.19
840.999	17425
841.292	274.75
841.585	223.1
841.878	81.02
842.171	38
842.464	25.45
842.757	18.02
843.049	21
843.342	41.19
843.635	51.96
843.927	130.22
844.22	134.05
844.513	341.28
844.805	-1617.86
845.098	-382.69
845.39	183.95
845.682	281.97
845.975	504.57
846.267	-19908.33
846.559	1265
846.851	-275
847.143	-266.62
847.435	-67.31
847.727	-160.58
848.019	-149.44
848.311	243.41
848.603	111.04
848.895	105.87
849.186	54.23
849.478	27.54
849.77	14.18
850.061	8.36
850.353	17.01
850.645	19.75
850.936	23.35
851.227	33.25
851.519	-6.36
851.81	4.46
852.101	-22.91
852.393	-11.65
852.684	-19.8
852.975	-20.58
853.266	-25.83
853.557	-26.18
853.848	-28.14
854.139	-23.63
854.43	-23.34
854.72	0.69
855.011	-8.47
855.302	-4.85
855.593	-0.3
855.883	-2.3
856.174	-14.52
856.464	-22.27
856.755	-1.42
857.045	11.52
857.336	7.74
857.626	15.31
857.916	-5.86
858.206	15.73
858.497	10.84
858.787	-3.26
859.077	-39.98
859.367	-63.52
859.657	-341.67
859.947	-133.39
860.237	-90.24
860.527	52.07
860.816	74.71
861.106	-478.7
861.396	-265.91
861.685	38.01
861.975	99.85
862.265	164.04
862.554	127.13
862.844	321.77
863.133	539.29
863.422	377.25
863.712	225
864.001	171.99
864.29	253.45
864.579	606.63
864.868	801.19
865.157	280.22
865.446	230.71
865.735	214.91
866.024	96.54
866.313	88.78
866.602	-555.56
866.891	-294.35
867.179	317.31
867.468	348.26
