Data from T2__Reflection__49__23-53-07-902.txt Node

Date: Tue Jun 01 23:53:07 CEST 2021
User: mabdelazizm
Spectrometer: FLMS18565
Trigger mode: 0
Integration Time (sec): 2.000000E0
Scans to average: 1
Electric dark correction enabled: true
Nonlinearity correction enabled: false
Boxcar width: 12
XAxis mode: Wavelengths
Number of Pixels in Spectrum: 2048
>>>>>Begin Spectral Data<<<<<
179.071	65.74
179.452	71.87
179.833	83.61
180.214	84.4
180.595	61.1
180.977	56.42
181.358	56.52
181.739	46.27
182.12	59.84
182.501	73.58
182.882	62.36
183.262	43.22
183.643	101.77
184.024	19.08
184.405	28.43
184.786	32.03
185.166	41.22
185.547	9.6
185.927	9.43
186.308	4.35
186.689	15.85
187.069	22.94
187.449	16
187.83	10.5
188.21	5.21
188.59	10.74
188.971	12.26
189.351	11.28
189.731	11.56
190.111	7.44
190.491	8.43
190.871	10.07
191.251	10.34
191.631	11.5
192.011	12.83
192.391	12.93
192.771	10.81
193.151	9.93
193.531	8.59
193.91	9.18
194.29	9.64
194.67	8.63
195.049	10.8
195.429	9.21
195.808	9.65
196.188	8.72
196.567	7.43
196.946	8.29
197.326	8.43
197.705	9.18
198.084	9.85
198.464	8.79
198.843	10.57
199.222	9.74
199.601	9.59
199.98	7.88
200.359	6.79
200.738	6.84
201.117	6.69
201.496	5.95
201.875	6.14
202.254	6.21
202.632	6.5
203.011	6.99
203.39	6.28
203.768	5.36
204.147	6.32
204.525	5.43
204.904	6.04
205.282	5.87
205.661	5.82
206.039	6.25
206.418	6.6
206.796	6.81
207.174	5.79
207.552	4.71
207.931	4.91
208.309	3.69
208.687	3.64
209.065	3.87
209.443	4.41
209.821	3.96
210.199	3.24
210.577	2.62
210.954	2.75
211.332	2.41
211.71	2.57
212.088	2.46
212.465	2.11
212.843	2.5
213.221	2.65
213.598	1.8
213.976	2.04
214.353	1.45
214.731	1.85
215.108	1.18
215.485	1.38
215.863	0.82
216.24	0.91
216.617	0.58
216.994	0.61
217.371	0.36
217.749	0.36
218.126	0.89
218.503	1.08
218.88	0.97
219.256	1.01
219.633	1.24
220.01	1.43
220.387	1.24
220.764	1.24
221.14	0.94
221.517	0.8
221.894	0.71
222.27	0.84
222.647	1
223.023	1.28
223.4	1.25
223.776	1.39
224.153	1.14
224.529	1.47
224.905	1.48
225.282	1.67
225.658	1.73
226.034	2.13
226.41	1.78
226.786	1.92
227.162	2.22
227.538	1.97
227.914	1.91
228.29	1.83
228.666	1.93
229.042	1.98
229.418	2.04
229.793	2.1
230.169	1.98
230.545	2.04
230.92	2.15
231.296	2.15
231.672	2.31
232.047	2.25
232.422	2.27
232.798	2.34
233.173	2.28
233.549	2.43
233.924	2.3
234.299	2.28
234.674	2.26
235.05	2.17
235.425	2.1
235.8	2.29
236.175	2.2
236.55	2.17
236.925	2.13
237.3	2.18
237.675	2.2
238.049	2.15
238.424	2.17
238.799	2.1
239.174	2.19
239.548	2.16
239.923	2.14
240.297	2.05
240.672	2.08
241.046	1.98
241.421	1.93
241.795	1.83
242.17	1.78
242.544	1.85
242.918	1.77
243.293	1.83
243.667	1.82
244.041	1.88
244.415	1.85
244.789	1.85
245.163	1.84
245.537	2
245.911	1.92
246.285	1.9
246.659	1.88
247.033	1.87
247.406	1.88
247.78	1.8
248.154	1.78
248.528	1.75
248.901	1.69
249.275	1.74
249.648	1.75
250.022	1.78
250.395	1.68
250.769	1.75
251.142	1.8
251.515	1.76
251.888	1.74
252.262	1.78
252.635	1.79
253.008	1.72
253.381	1.72
253.754	1.79
254.127	1.75
254.5	1.73
254.873	1.64
255.246	1.62
255.619	1.55
255.992	1.5
256.364	1.51
256.737	1.46
257.11	1.47
257.483	1.53
257.855	1.5
258.228	1.61
258.6	1.59
258.973	1.72
259.345	1.69
259.718	1.65
260.09	1.65
260.462	1.7
260.834	1.73
261.207	1.7
261.579	1.66
261.951	1.63
262.323	1.63
262.695	1.6
263.067	1.59
263.439	1.63
263.811	1.56
264.183	1.5
264.555	1.54
264.927	1.64
265.298	1.69
265.67	1.65
266.042	1.73
266.413	1.74
266.785	1.69
267.156	1.66
267.528	1.63
267.899	1.58
268.271	1.45
268.642	1.46
269.013	1.52
269.385	1.48
269.756	1.41
270.127	1.42
270.498	1.41
270.87	1.42
271.241	1.44
271.612	1.49
271.983	1.55
272.354	1.51
272.724	1.5
273.095	1.54
273.466	1.58
273.837	1.6
274.208	1.61
274.578	1.6
274.949	1.66
275.32	1.56
275.69	1.54
276.061	1.57
276.431	1.66
276.802	1.67
277.172	1.68
277.542	1.66
277.913	1.65
278.283	1.61
278.653	1.58
279.023	1.57
279.394	1.56
279.764	1.52
280.134	1.49
280.504	1.44
280.874	1.39
281.244	1.32
281.614	1.26
281.983	1.3
282.353	1.38
282.723	1.42
283.093	1.39
283.462	1.4
283.832	1.39
284.202	1.34
284.571	1.43
284.941	1.48
285.31	1.47
285.68	1.4
286.049	1.37
286.418	1.39
286.788	1.46
287.157	1.43
287.526	1.45
287.895	1.45
288.264	1.42
288.633	1.45
289.002	1.52
289.371	1.51
289.74	1.5
290.109	1.47
290.478	1.49
290.847	1.52
291.216	1.42
291.585	1.33
291.953	1.25
292.322	1.18
292.691	1.11
293.059	1.08
293.428	1.11
293.796	1.1
294.165	1.02
294.533	1
294.901	1
295.27	0.96
295.638	0.99
296.006	0.93
296.374	0.91
296.743	0.83
297.111	0.82
297.479	0.83
297.847	0.75
298.215	0.79
298.583	0.76
298.95	0.79
299.318	0.86
299.686	0.84
300.054	0.84
300.422	0.87
300.789	0.89
301.157	0.95
301.525	0.92
301.892	0.94
302.26	0.94
302.627	0.94
302.994	0.84
303.362	0.83
303.729	0.82
304.097	0.75
304.464	0.79
304.831	0.83
305.198	0.74
305.565	0.75
305.932	0.81
306.299	0.72
306.666	0.71
307.033	0.7
307.4	0.72
307.767	0.71
308.134	0.66
308.501	0.64
308.867	0.58
309.234	0.6
309.601	0.56
309.967	0.52
310.334	0.51
310.701	0.6
311.067	0.54
311.433	0.56
311.8	0.5
312.166	0.49
312.533	0.48
312.899	0.51
313.265	0.57
313.631	0.53
313.997	0.42
314.363	0.46
314.729	0.45
315.096	0.42
315.461	0.47
315.827	0.55
316.193	0.55
316.559	0.45
316.925	0.46
317.291	0.47
317.656	0.43
318.022	0.42
318.388	0.43
318.753	0.42
319.119	0.52
319.484	0.49
319.85	0.41
320.215	0.42
320.581	0.44
320.946	0.48
321.311	0.57
321.676	0.53
322.042	0.43
322.407	0.41
322.772	0.44
323.137	0.43
323.502	0.45
323.867	0.46
324.232	0.47
324.597	0.55
324.962	0.52
325.327	0.56
325.691	0.64
326.056	0.66
326.421	0.67
326.785	0.63
327.15	0.64
327.514	0.58
327.879	0.66
328.243	0.51
328.608	0.52
328.972	0.55
329.337	0.53
329.701	0.48
330.065	0.45
330.429	0.44
330.794	0.53
331.158	0.6
331.522	0.61
331.886	0.62
332.25	0.63
332.614	0.58
332.978	0.61
333.342	0.63
333.705	0.65
334.069	0.65
334.433	0.61
334.797	0.58
335.16	0.49
335.524	0.41
335.887	0.4
336.251	0.37
336.614	0.44
336.978	0.36
337.341	0.38
337.705	0.3
338.068	0.4
338.431	0.41
338.794	0.45
339.158	0.44
339.521	0.44
339.884	0.46
340.247	0.45
340.61	0.47
340.973	0.47
341.336	0.47
341.699	0.55
342.062	0.48
342.424	0.4
342.787	0.33
343.15	0.34
343.512	0.4
343.875	0.38
344.238	0.43
344.6	0.55
344.963	0.65
345.325	0.7
345.688	0.6
346.05	0.6
346.412	0.6
346.775	0.68
347.137	0.59
347.499	0.59
347.861	0.51
348.223	0.51
348.585	0.45
348.947	0.37
349.309	0.39
349.671	0.43
350.033	0.41
350.395	0.36
350.757	0.3
351.118	0.4
351.48	0.44
351.842	0.4
352.203	0.33
352.565	0.29
352.927	0.32
353.288	0.3
353.65	0.21
354.011	0.16
354.372	0.24
354.734	0.31
355.095	0.33
355.456	0.39
355.817	0.33
356.179	0.46
356.54	0.43
356.901	0.47
357.262	0.47
357.623	0.47
357.984	0.48
358.345	0.48
358.705	0.46
359.066	0.4
359.427	0.47
359.788	0.53
360.148	0.53
360.509	0.6
360.87	0.61
361.23	0.59
361.591	0.58
361.951	0.62
362.312	0.64
362.672	0.72
363.032	0.66
363.393	0.65
363.753	0.69
364.113	0.64
364.473	0.66
364.833	0.73
365.193	0.6
365.553	0.67
365.913	0.66
366.273	0.7
366.633	0.8
366.993	0.83
367.353	0.8
367.713	0.62
368.072	0.68
368.432	0.71
368.792	0.65
369.151	0.58
369.511	0.47
369.87	0.47
370.23	0.5
370.589	0.56
370.949	0.45
371.308	0.46
371.667	0.44
372.027	0.44
372.386	0.34
372.745	0.28
373.104	0.38
373.463	0.37
373.822	0.29
374.181	0.3
374.54	0.27
374.899	0.33
375.258	0.28
375.617	0.14
375.975	0.16
376.334	0.16
376.693	0.29
377.052	0.3
377.41	0.26
377.769	0.24
378.127	0.22
378.486	0.24
378.844	0.24
379.202	0.31
379.561	0.24
379.919	0.24
380.277	0.28
380.636	0.32
380.994	0.42
381.352	0.36
381.71	0.42
382.068	0.31
382.426	0.23
382.784	0.29
383.142	0.34
383.5	0.36
383.857	0.35
384.215	0.36
384.573	0.49
384.931	0.47
385.288	0.4
385.646	0.33
386.003	0.32
386.361	0.25
386.718	0.38
387.076	0.47
387.433	0.48
387.791	0.45
388.148	0.38
388.505	0.4
388.862	0.41
389.22	0.35
389.577	0.29
389.934	0.26
390.291	0.38
390.648	0.29
391.005	0.43
391.362	0.52
391.718	0.49
392.075	0.4
392.432	0.44
392.789	0.41
393.145	0.48
393.502	0.36
393.859	0.29
394.215	0.37
394.572	0.48
394.928	0.4
395.285	0.43
395.641	0.35
395.997	0.35
396.354	0.34
396.71	0.41
397.066	0.41
397.422	0.37
397.778	0.38
398.134	0.44
398.491	0.5
398.846	0.42
399.202	0.41
399.558	0.43
399.914	0.42
400.27	0.31
400.626	0.29
400.981	0.35
401.337	0.34
401.693	0.37
402.048	0.35
402.404	0.5
402.759	0.66
403.115	0.67
403.47	0.58
403.826	0.75
404.181	0.75
404.536	0.73
404.892	0.65
405.247	0.72
405.602	0.7
405.957	0.73
406.312	0.79
406.667	0.77
407.022	0.82
407.377	0.83
407.732	0.92
408.087	0.96
408.442	0.9
408.796	0.83
409.151	0.82
409.506	0.86
409.86	0.85
410.215	0.85
410.57	0.82
410.924	0.82
411.279	0.69
411.633	0.6
411.987	0.48
412.342	0.45
412.696	0.37
413.05	0.4
413.404	0.45
413.758	0.52
414.113	0.55
414.467	0.61
414.821	0.65
415.175	0.68
415.529	0.67
415.882	0.63
416.236	0.53
416.59	0.56
416.944	0.54
417.298	0.68
417.651	0.68
418.005	0.86
418.358	0.94
418.712	1.01
419.065	1.04
419.419	1.08
419.772	1.11
420.126	1.17
420.479	1.19
420.832	1.39
421.185	1.51
421.539	1.56
421.892	1.59
422.245	1.61
422.598	1.55
422.951	1.55
423.304	1.56
423.657	1.57
424.01	1.62
424.363	1.73
424.715	1.83
425.068	1.94
425.421	1.96
425.773	2
426.126	2.19
426.479	2.31
426.831	2.35
427.184	2.34
427.536	2.43
427.889	2.42
428.241	2.49
428.593	2.47
428.945	2.51
429.298	2.64
429.65	2.68
430.002	2.85
430.354	2.97
430.706	3.15
431.058	3.3
431.41	3.33
431.762	3.38
432.114	3.39
432.466	3.37
432.817	3.28
433.169	3.27
433.521	3.17
433.872	3.19
434.224	3.27
434.576	3.29
434.927	3.04
435.279	3.05
435.63	2.98
435.981	3.02
436.333	3.01
436.684	2.98
437.035	2.84
437.387	2.91
437.738	2.98
438.089	3.02
438.44	3.01
438.791	2.93
439.142	2.95
439.493	2.77
439.844	2.76
440.195	2.81
440.545	2.78
440.896	2.75
441.247	2.76
441.598	2.95
441.948	2.9
442.299	2.95
442.649	2.95
443	2.88
443.35	2.9
443.701	2.98
444.051	2.95
444.401	2.94
444.752	2.84
445.102	2.68
445.452	2.79
445.802	2.91
446.152	2.93
446.502	2.9
446.852	2.78
447.202	2.72
447.552	2.79
447.902	2.72
448.252	2.77
448.602	2.61
448.952	2.7
449.301	2.81
449.651	2.92
450.001	2.99
450.35	2.93
450.7	3.12
451.049	3.1
451.399	3.11
451.748	3.25
452.097	3.28
452.447	3.28
452.796	3.32
453.145	3.47
453.494	3.61
453.843	3.77
454.193	3.78
454.542	3.82
454.891	3.79
455.239	3.86
455.588	4.09
455.937	4.22
456.286	4.2
456.635	4.24
456.984	4.35
457.332	4.63
457.681	4.73
458.03	4.75
458.378	4.85
458.727	5.13
459.075	5.25
459.423	5.3
459.772	5.42
460.12	5.57
460.468	5.63
460.817	5.73
461.165	5.99
461.513	6.03
461.861	6.07
462.209	6.11
462.557	6.15
462.905	6.22
463.253	6.21
463.601	6.26
463.949	6.35
464.297	6.29
464.644	6.38
464.992	6.4
465.34	6.41
465.687	6.37
466.035	6.27
466.383	6.23
466.73	6.11
467.078	5.89
467.425	5.61
467.772	5.52
468.12	5.49
468.467	5.55
468.814	5.43
469.161	5.36
469.508	5.35
469.856	5.15
470.203	5.06
470.55	4.98
470.897	5.02
471.243	4.91
471.59	4.86
471.937	4.87
472.284	4.86
472.631	4.78
472.977	4.72
473.324	4.59
473.671	4.46
474.017	4.43
474.364	4.4
474.71	4.31
475.057	4.27
475.403	4.31
475.749	4.45
476.096	4.42
476.442	4.3
476.788	4.23
477.134	4.17
477.48	4.14
477.826	4.18
478.172	4.13
478.518	4.14
478.864	4.26
479.21	4.21
479.556	4.19
479.902	4.3
480.248	4.28
480.593	4.25
480.939	4.28
481.285	4.35
481.63	4.37
481.976	4.41
482.321	4.5
482.667	4.63
483.012	4.72
483.357	4.91
483.703	5.05
484.048	5.21
484.393	5.36
484.738	5.56
485.084	5.82
485.429	6.02
485.774	6.26
486.119	6.59
486.464	6.82
486.808	7.12
487.153	7.47
487.498	7.74
487.843	8.09
488.188	8.46
488.532	8.81
488.877	9.31
489.222	9.8
489.566	10.39
489.911	10.91
490.255	11.48
490.6	12.06
490.944	12.72
491.288	13.28
491.633	13.9
491.977	14.46
492.321	15.1
492.665	15.71
493.009	16.43
493.353	17.2
493.697	17.95
494.041	18.71
494.385	19.42
494.729	20.08
495.073	20.78
495.417	21.52
495.76	22.3
496.104	23.18
496.448	24.02
496.791	24.8
497.135	25.69
497.479	26.53
497.822	27.38
498.165	28.22
498.509	29.01
498.852	29.93
499.196	30.83
499.539	31.66
499.882	32.55
500.225	33.46
500.568	34.31
500.911	35.15
501.254	35.9
501.597	36.65
501.94	37.28
502.283	38.01
502.626	38.73
502.969	39.38
503.312	40.22
503.654	40.97
503.997	41.63
504.34	42.24
504.682	42.88
505.025	43.44
505.367	44.1
505.71	44.72
506.052	45.26
506.395	45.71
506.737	46.06
507.079	46.51
507.421	46.89
507.764	47.44
508.106	47.94
508.448	48.42
508.79	48.83
509.132	49.25
509.474	49.56
509.816	49.96
510.158	50.24
510.499	50.75
510.841	51.03
511.183	51.35
511.525	51.76
511.866	52.02
512.208	52.29
512.549	52.71
512.891	53.07
513.232	53.35
513.574	53.82
513.915	54.22
514.256	54.51
514.598	54.89
514.939	55.29
515.28	55.65
515.621	56.03
515.962	56.29
516.303	56.45
516.644	56.67
516.985	56.88
517.326	56.91
517.667	56.99
518.008	57.27
518.349	57.54
518.69	57.77
519.03	57.81
519.371	58.01
519.712	58.12
520.052	58.29
520.393	58.48
520.733	58.46
521.074	58.56
521.414	58.88
521.754	59.03
522.095	59.14
522.435	59.29
522.775	59.42
523.115	59.46
523.455	59.36
523.795	59.48
524.135	59.67
524.475	59.8
524.815	60.04
525.155	60.17
525.495	60.17
525.835	60.35
526.175	60.61
526.514	60.68
526.854	60.71
527.194	60.89
527.533	61.04
527.873	61.17
528.212	61.38
528.552	61.52
528.891	61.41
529.23	61.68
529.57	61.67
529.909	61.7
530.248	61.72
530.587	61.77
530.927	61.75
531.266	61.89
531.605	62.01
531.944	62.3
532.283	62.41
532.621	62.46
532.96	62.66
533.299	62.56
533.638	62.46
533.977	62.52
534.315	62.65
534.654	62.66
534.992	62.63
535.331	62.81
535.67	62.74
536.008	62.71
536.346	62.71
536.685	62.64
537.023	62.74
537.361	63.05
537.7	63.22
538.038	63.45
538.376	63.29
538.714	63.33
539.052	63.16
539.39	63.09
539.728	63.03
540.066	63.15
540.404	63.17
540.741	63.23
541.079	63.37
541.417	63.38
541.755	63.36
542.092	63.41
542.43	63.23
542.767	63.17
543.105	63.23
543.442	63.21
543.78	63.32
544.117	63.29
544.454	63.4
544.792	63.39
545.129	63.46
545.466	63.45
545.803	63.24
546.14	63.19
546.477	63.17
546.814	63.42
547.151	63.41
547.488	63.61
547.825	63.66
548.162	63.62
548.499	63.22
548.835	63.23
549.172	63.05
549.509	62.95
549.845	62.87
550.182	62.87
550.518	62.91
550.855	63.12
551.191	63.03
551.528	62.93
551.864	63.18
552.2	63.06
552.537	63.22
552.873	63.27
553.209	63.39
553.545	63.42
553.881	63.46
554.217	63.57
554.553	63.31
554.889	63.31
555.225	63.09
555.561	63.12
555.896	63.13
556.232	63.14
556.568	63.16
556.903	63.7
557.239	63.72
557.575	64.14
557.91	64.26
558.245	64.33
558.581	64.51
558.916	64.72
559.252	64.71
559.587	64.83
559.922	65.02
560.257	64.87
560.592	64.83
560.928	64.99
561.263	64.74
561.598	64.85
561.933	64.74
562.267	64.92
562.602	64.98
562.937	65.27
563.272	65.33
563.607	65.22
563.941	65.5
564.276	65.45
564.611	65.6
564.945	65.68
565.28	65.54
565.614	65.52
565.949	65.26
566.283	65.16
566.617	65.32
566.951	65.34
567.286	65.15
567.62	65.17
567.954	65.2
568.288	65.2
568.622	65.25
568.956	65.27
569.29	65.23
569.624	65.3
569.958	65.36
570.292	65.44
570.626	65.34
570.959	65.29
571.293	65.38
571.627	65.22
571.96	65.4
572.294	65.22
572.627	65.39
572.961	65.43
573.294	65.41
573.627	65.47
573.961	65.58
574.294	65.63
574.627	65.61
574.961	65.55
575.294	65.33
575.627	65.32
575.96	65.43
576.293	65.52
576.626	65.5
576.959	65.43
577.292	65.4
577.624	65.45
577.957	65.67
578.29	65.63
578.623	65.67
578.955	65.72
579.288	65.83
579.62	65.7
579.953	66
580.285	66.07
580.618	66.24
580.95	66.24
581.282	66.17
581.615	66.29
581.947	66.22
582.279	66.16
582.611	66.29
582.943	66.43
583.275	66.47
583.607	66.77
583.939	67.02
584.271	67.09
584.603	67.02
584.935	67.01
585.267	67.15
585.598	67.2
585.93	66.96
586.262	66.8
586.593	66.69
586.925	66.65
587.256	66.52
587.588	66.46
587.919	66.63
588.25	66.58
588.582	66.63
588.913	66.58
589.244	66.36
589.575	66.54
589.907	66.41
590.238	66.51
590.569	66.67
590.9	66.55
591.231	66.39
591.562	66.35
591.892	66.29
592.223	66.38
592.554	66.37
592.885	66.36
593.215	66.49
593.546	66.67
593.877	66.63
594.207	66.85
594.538	67.13
594.868	67.31
595.198	67.42
595.529	67.63
595.859	67.7
596.189	67.79
596.52	67.79
596.85	67.78
597.18	67.67
597.51	67.8
597.84	67.53
598.17	67.72
598.5	67.9
598.83	67.77
599.16	67.9
599.489	68.03
599.819	68.05
600.149	68.14
600.479	68
600.808	67.85
601.138	68.02
601.467	68.05
601.797	67.86
602.126	67.99
602.456	68.05
602.785	67.91
603.114	67.86
603.443	67.85
603.773	67.84
604.102	67.83
604.431	67.82
604.76	67.79
605.089	67.71
605.418	67.82
605.747	68.05
606.076	68.4
606.405	68.4
606.733	68.14
607.062	68.16
607.391	68.14
607.72	68.25
608.048	68.36
608.377	68.45
608.705	68.49
609.034	68.65
609.362	68.84
609.69	68.85
610.019	68.95
610.347	69.04
610.675	69.04
611.004	69.02
611.332	69.09
611.66	69.2
611.988	69.17
612.316	69.13
612.644	69.06
612.972	69.12
613.3	69.15
613.627	69.15
613.955	69.08
614.283	68.9
614.611	68.83
614.938	68.84
615.266	68.97
615.593	68.84
615.921	68.65
616.248	68.98
616.576	68.96
616.903	68.96
617.23	69.24
617.558	69.07
617.885	69.11
618.212	69.21
618.539	69.13
618.866	69.07
619.193	69.15
619.52	69.14
619.847	68.85
620.174	68.94
620.501	69.05
620.828	68.75
621.155	68.79
621.481	68.66
621.808	68.68
622.135	68.51
622.461	68.75
622.788	68.77
623.114	68.99
623.441	68.99
623.767	69.35
624.093	69.72
624.42	69.62
624.746	69.82
625.072	70.16
625.398	69.67
625.725	69.54
626.051	69.51
626.377	69.91
626.703	69.88
627.029	69.96
627.354	70
627.68	70.12
628.006	70.97
628.332	70.89
628.658	70.87
628.983	71.84
629.309	71.46
629.634	72.03
629.96	72.28
630.285	72.21
630.611	71.9
630.936	72.05
631.262	72.28
631.587	72.94
631.912	72.65
632.237	72.25
632.562	71.83
632.887	71.94
633.213	72.03
633.538	72.64
633.863	72.23
634.187	72.3
634.512	71.26
634.837	71.5
635.162	71.09
635.487	71.39
635.811	71.73
636.136	71.4
636.461	71.46
636.785	72.18
637.11	71.36
637.434	71.6
637.758	71.21
638.083	71.45
638.407	71.52
638.731	71.63
639.056	71.14
639.38	70.69
639.704	69.21
640.028	70.06
640.352	70.43
640.676	70.97
641	70.87
641.324	70.84
641.648	70.62
641.972	71.22
642.295	71.05
642.619	72.07
642.943	72.9
643.266	73.23
643.59	72.76
643.913	72.03
644.237	71.35
644.56	71.25
644.884	71.13
645.207	71.09
645.53	71.25
645.854	71.48
646.177	71.01
646.5	71.58
646.823	71.49
647.146	71.53
647.469	71.78
647.792	72.51
648.115	71.72
648.438	71.83
648.761	71.89
649.084	71.01
649.406	69.88
649.729	69.26
650.052	69.48
650.374	69.41
650.697	69.1
651.019	68.8
651.342	68.72
651.664	68.8
651.987	68.98
652.309	68.97
652.631	69.03
652.953	68.78
653.276	68.89
653.598	69
653.92	69.07
654.242	69.2
654.564	69.1
654.886	69.1
655.208	69.11
655.53	69.15
655.851	69.23
656.173	69.26
656.495	69.21
656.816	68.79
657.138	69.02
657.46	69.69
657.781	71.13
658.103	71.14
658.424	71.42
658.746	72.43
659.067	73.08
659.388	74.01
659.709	74.09
660.031	73.73
660.352	74.44
660.673	74.41
660.994	74.42
661.315	74.44
661.636	73.78
661.957	73.97
662.278	74.17
662.599	72.99
662.919	73.5
663.24	73.88
663.561	73.25
663.881	73.01
664.202	73.07
664.523	73.18
664.843	73.48
665.164	73.73
665.484	74.13
665.804	74.62
666.125	75.29
666.445	75.68
666.765	74.99
667.085	75.07
667.405	74.9
667.726	74.63
668.046	75.4
668.366	75.41
668.686	75.93
669.005	75.9
669.325	76.27
669.645	76.07
669.965	75.66
670.285	75.08
670.604	75.82
670.924	76.12
671.243	75.8
671.563	75.8
671.882	76.21
672.202	76.07
672.521	76.13
672.841	75.85
673.16	74.49
673.479	73.93
673.798	72.79
674.117	72.02
674.437	72.19
674.756	72.34
675.075	71.96
675.394	71.57
675.713	71.03
676.031	70.48
676.35	70.98
676.669	69.67
676.988	70.64
677.306	70.51
677.625	70.73
677.944	71.33
678.262	71.96
678.581	71.95
678.899	71.06
679.218	71.38
679.536	71.92
679.854	70.72
680.172	71.15
680.491	71.38
680.809	71.65
681.127	71.87
681.445	71.87
681.763	72.08
682.081	72.24
682.399	72.05
682.717	72.16
683.035	72.52
683.352	72.29
683.67	72.84
683.988	72.93
684.306	72.88
684.623	73.7
684.941	73.15
685.258	73.06
685.576	73.5
685.893	73.26
686.211	72.78
686.528	73.39
686.845	74.06
687.162	74.9
687.48	74.33
687.797	75.6
688.114	75.55
688.431	74.92
688.748	75.59
689.065	75.71
689.382	75.41
689.699	75.7
690.015	75.59
690.332	75.27
690.649	76.04
690.966	75.15
691.282	75.3
691.599	74.88
691.915	75.1
692.232	74.51
692.548	74.83
692.865	74.32
693.181	74.25
693.497	74.07
693.813	74.3
694.13	74.06
694.446	73.25
694.762	72.85
695.078	71.36
695.394	71.53
695.71	71.7
696.026	70.45
696.342	70.62
696.658	69.56
696.973	69.13
697.289	69.76
697.605	70.29
697.92	69.79
698.236	70.07
698.551	68.75
698.867	69.42
699.182	69.38
699.498	69.65
699.813	69.48
700.128	70.06
700.444	69.86
700.759	70.23
701.074	70
701.389	69.86
701.704	69.52
702.019	70.57
702.334	71.18
702.649	70.39
702.964	70.88
703.279	70.52
703.594	69.84
703.908	71.5
704.223	71.55
704.538	72.55
704.852	72.94
705.167	73.67
705.481	73.33
705.796	73.73
706.11	73.45
706.425	73.73
706.739	73.87
707.053	74.94
707.368	74.98
707.682	75.12
707.996	75.44
708.31	74.95
708.624	75.87
708.938	76.58
709.252	76.51
709.566	75.4
709.88	73.9
710.193	74.75
710.507	74.4
710.821	74.9
711.135	75.78
711.448	76.35
711.762	75.57
712.075	75.56
712.389	75.08
712.702	74.4
713.015	74.24
713.329	72.81
713.642	73.58
713.955	73.26
714.269	73.54
714.582	73.13
714.895	71.54
715.208	72.82
715.521	71.65
715.834	69.53
716.147	70.7
716.459	71.05
716.772	70.75
717.085	71.38
717.398	71.83
717.71	73.23
718.023	72.75
718.336	75.73
718.648	73.49
718.961	71.54
719.273	71.67
719.585	72.68
719.898	73.04
720.21	72.2
720.522	72.7
720.834	72.12
721.147	73.41
721.459	72.61
721.771	73.8
722.083	74.91
722.395	74.22
722.707	74.9
723.019	73.31
723.33	74.39
723.642	75.82
723.954	74.75
724.265	73.52
724.577	73.28
724.889	72.29
725.2	72.13
725.512	71.59
725.823	71.56
726.135	71.69
726.446	73.25
726.757	74.5
727.068	74.48
727.38	73.8
727.691	74.32
728.002	75.16
728.313	75.6
728.624	74.97
728.935	74.45
729.246	74.31
729.557	73.58
729.867	73.11
730.178	72.98
730.489	73.66
730.8	74.74
731.11	74.7
731.421	74.38
731.731	73.54
732.042	72.38
732.352	72.71
732.663	73.63
732.973	73.19
733.283	73.7
733.594	72.84
733.904	72.13
734.214	72.2
734.524	74.43
734.834	75.38
735.144	75.35
735.454	75.48
735.764	75.22
736.074	75.32
736.384	76.88
736.694	78.67
737.003	78.66
737.313	79.59
737.623	78.03
737.932	79.63
738.242	78.81
738.551	77.87
738.861	77.72
739.17	78.72
739.479	79.99
739.789	81.8
740.098	80.87
740.407	79.6
740.716	81.35
741.025	79.29
741.334	79.9
741.643	79.3
741.952	80.11
742.261	78.14
742.57	73.3
742.879	72.57
743.188	71.09
743.497	69.49
743.805	72.87
744.114	72.11
744.422	69.79
744.731	68.53
745.04	67.66
745.348	70.9
745.656	70.01
745.965	73.01
746.273	75.11
746.581	72.88
746.889	71.97
747.198	72.61
747.506	74.13
747.814	74.69
748.122	74.07
748.43	75.7
748.738	78.99
749.046	78
749.353	77.73
749.661	77.17
749.969	77.01
750.277	80.21
750.584	81.05
750.892	82.09
751.199	83.82
751.507	80.7
751.814	80.13
752.122	79.98
752.429	81.02
752.736	79.44
753.044	77.37
753.351	75.38
753.658	70.94
753.965	67.58
754.272	70.1
754.579	72.12
754.886	73.29
755.193	73.61
755.5	75.39
755.807	74.61
756.114	73.13
756.42	72.12
756.727	74.41
757.034	78.17
757.34	79.93
757.647	78.37
757.953	77.59
758.26	75.92
758.566	75.33
758.872	76.47
759.179	76.53
759.485	76.29
759.791	78.81
760.097	77.22
760.403	78.91
760.709	79.44
761.015	81.95
761.321	83.61
761.627	85.1
761.933	85.47
762.239	84.42
762.545	84.68
762.851	81.14
763.156	82.48
763.462	83.47
763.767	79.5
764.073	80.41
764.378	78.34
764.684	75.95
764.989	74.72
765.295	72.32
765.6	70.29
765.905	72.69
766.21	73.36
766.515	70.32
766.821	67.83
767.126	69.64
767.431	69.42
767.736	73.48
768.041	71.7
768.345	71.38
768.65	71.59
768.955	74.81
769.26	73.52
769.564	73.36
769.869	70.74
770.174	64.97
770.478	68.23
770.783	67.01
771.087	64.78
771.391	71.14
771.696	70.41
772	72.45
772.304	75.68
772.608	79.64
772.913	85.22
773.217	94.77
773.521	95
773.825	97.78
774.129	103.69
774.433	105.16
774.736	104.66
775.04	106.82
775.344	97.06
775.648	97.91
775.951	98.47
776.255	97.2
776.559	87.62
776.862	96.78
777.166	94.27
777.469	97.08
777.772	93.81
778.076	96.73
778.379	86.06
778.682	99.44
778.985	95.16
779.289	92.75
779.592	103.08
779.895	96.49
780.198	83.29
780.501	84.26
780.804	76.92
781.106	70.26
781.409	58.94
781.712	53.23
782.015	60.65
782.317	56.45
782.62	51.77
782.923	63.51
783.225	62.73
783.527	59.32
783.83	60.46
784.132	70.36
784.435	60.88
784.737	68.52
785.039	70.79
785.341	84.17
785.643	86.94
785.945	89.88
786.248	89.62
786.55	85.45
786.851	76.74
787.153	65.43
787.455	53.48
787.757	65.66
788.059	71.54
788.36	71.28
788.662	76.11
788.964	76.6
789.265	78.48
789.567	60.66
789.868	55.21
790.17	42.1
790.471	41.34
790.772	21.6
791.074	26.6
791.375	30.37
791.676	17.07
791.977	17.9
792.278	-8.43
792.579	-8.61
792.88	-14.17
793.181	-23.84
793.482	-30.11
793.783	-33.39
794.083	-23.04
794.384	-29.53
794.685	-44.55
794.986	-47.07
795.286	-53.18
795.587	-58.38
795.887	-76.2
796.188	-103.53
796.488	-87.02
796.788	-87.54
797.089	-67.83
797.389	-49.96
797.689	-41.32
797.989	-80.8
798.289	-52.1
798.589	-48.37
798.889	-70.39
799.189	-132.41
799.489	-162.18
799.789	-123.33
800.089	-131.26
800.389	-100
800.688	-85.23
800.988	-108.41
801.288	-112.35
801.587	-116.81
801.887	-99.21
802.186	-77.66
802.486	-43.16
802.785	-118.98
803.085	-152.88
803.384	-193.93
803.683	-94.72
803.982	-94.48
804.281	-130.09
804.58	-411.11
804.879	389.92
805.178	-388
805.477	-150.27
805.776	-488.73
806.075	-63.04
806.374	-46.67
806.673	-21.65
806.971	-97.95
807.27	-86.97
807.569	-38.56
807.867	-206.67
808.166	-56.3
808.464	8.92
808.763	14.15
809.061	13.13
809.359	-10.8
809.658	0.3
809.956	-4.45
810.254	-3.45
810.552	53.23
810.85	65.01
811.148	107.22
811.446	101.68
811.744	81.77
812.042	74.18
812.34	55.97
812.638	39.85
812.935	43.26
813.233	42.63
813.531	53.65
813.828	37.89
814.126	34.37
814.423	65.13
814.721	86.4
815.018	59.51
815.316	48.25
815.613	39.01
815.91	34.12
816.207	46.29
816.504	66.08
816.802	86.37
817.099	133.25
817.396	126.12
817.693	99.68
817.99	63.74
818.286	51.49
818.583	26.26
818.88	3.91
819.177	46.97
819.473	56.75
819.77	75.4
820.067	87.08
820.363	138.16
820.66	145.7
820.956	138.51
821.252	131.74
821.549	121.92
821.845	113.66
822.141	99.13
822.437	95.5
822.734	85.57
823.03	78.37
823.326	90.63
823.622	68.9
823.918	72.57
824.213	61.51
824.509	31.42
824.805	25.98
825.101	38.71
825.397	28.68
825.692	41.18
825.988	52.07
826.283	62.33
826.579	61.81
826.874	52.48
827.17	35.48
827.465	20.67
827.76	19.95
828.056	24.34
828.351	29
828.646	16.81
828.941	-10.09
829.236	3.75
829.531	19.86
829.826	17.5
830.121	38.69
830.416	78.11
830.711	58.37
831.006	75.34
831.3	60.55
831.595	68.49
831.89	74.37
832.184	96.03
832.479	103.34
832.773	126.01
833.068	97.69
833.362	109.83
833.656	110.71
833.951	136.19
834.245	161.95
834.539	300
834.833	236.77
835.127	-3747.06
835.421	-1948.28
835.715	-486.52
836.009	-268.42
836.303	-159.83
836.597	-182.99
836.891	-410.59
837.185	544.21
837.478	-423.97
837.772	550.51
838.066	281.76
838.359	312.54
838.653	460.35
838.946	909.71
839.24	394.38
839.533	1274.55
839.826	1740
840.119	-7522.22
840.413	5473.33
840.706	-3890.48
840.999	31633.33
841.292	428.64
841.585	318.96
841.878	148.52
842.171	125.62
842.464	97.32
842.757	97.88
843.049	66.19
843.342	34.33
843.635	38.43
843.927	75.46
844.22	147.24
844.513	402.33
844.805	814.29
845.098	-110.26
845.39	97.38
845.682	253.94
845.975	618.28
846.267	-15166.67
846.559	868.89
846.851	-127.43
847.143	-133.53
847.435	-31.77
847.727	-66.51
848.019	-153.81
848.311	268.16
848.603	83.07
848.895	95.64
849.186	57.95
849.478	36.72
849.77	37.52
850.061	26.22
850.353	-4.63
850.645	-54.22
850.936	-59.59
851.227	-32.44
851.519	-23.81
851.81	-18.93
852.101	-18.04
852.393	0.37
852.684	28.71
852.975	14.49
853.266	7.81
853.557	23.74
853.848	27.48
854.139	41.76
854.43	52.97
854.72	80.05
855.011	80.81
855.302	53.44
855.593	80.5
855.883	105.3
856.174	74.72
856.464	65.44
856.755	69.62
857.045	72.48
857.336	98.29
857.626	97.04
857.916	80.94
858.206	93.72
858.497	86.9
858.787	99.56
859.077	122.22
859.367	260.66
859.657	-50.88
859.947	-124.16
860.237	-218.1
860.527	-139.1
860.816	-180.92
861.106	1440.74
861.396	4918.18
861.685	556.91
861.975	547.85
862.265	518.18
862.554	327.23
862.844	519.35
863.133	559.34
863.422	444.14
863.712	334.78
864.001	262.84
864.29	372.41
864.579	879.59
864.868	823.81
865.157	383.58
865.446	260
865.735	311.01
866.024	272.31
866.313	249.61
866.602	-422.22
866.891	-267.74
867.179	361.54
867.468	141.86
