Data from T2__Reflection__18__23-29-47-945.txt Node

Date: Tue Jun 01 23:29:47 CEST 2021
User: mabdelazizm
Spectrometer: FLMS18565
Trigger mode: 0
Integration Time (sec): 2.000000E0
Scans to average: 1
Electric dark correction enabled: true
Nonlinearity correction enabled: false
Boxcar width: 12
XAxis mode: Wavelengths
Number of Pixels in Spectrum: 2048
>>>>>Begin Spectral Data<<<<<
179.071	59.56
179.452	66.51
179.833	70.57
180.214	68.09
180.595	57.35
180.977	43
181.358	31.59
181.739	27.24
182.12	23.63
182.501	6.6
182.882	10.72
183.262	11.86
183.643	23.45
184.024	-53.82
184.405	-22.24
184.786	-4.31
185.166	11.78
185.547	-1.02
185.927	9.46
186.308	9.05
186.689	8.77
187.069	16.57
187.449	7.47
187.83	7.32
188.21	4.72
188.59	7.87
188.971	10.39
189.351	11.51
189.731	9.42
190.111	8.8
190.491	8.15
190.871	6.92
191.251	8.1
191.631	7.04
192.011	6.45
192.391	7.05
192.771	7.18
193.151	6.86
193.531	7.71
193.91	9.96
194.29	9.84
194.67	9.3
195.049	9.51
195.429	8.12
195.808	7.98
196.188	7.58
196.567	6.64
196.946	7.87
197.326	8.44
197.705	9.73
198.084	10.73
198.464	10.45
198.843	10.9
199.222	10.99
199.601	10.6
199.98	8.82
200.359	8.54
200.738	7.78
201.117	8.04
201.496	7.62
201.875	7.67
202.254	7.21
202.632	7.26
203.011	6.5
203.39	4.41
203.768	4.1
204.147	5.2
204.525	5.38
204.904	5.24
205.282	5.04
205.661	4.65
206.039	5.07
206.418	5.71
206.796	5.37
207.174	4.52
207.552	4.24
207.931	3.31
208.309	2.33
208.687	2.34
209.065	2.08
209.443	2.72
209.821	2.13
210.199	2.2
210.577	1.56
210.954	1.58
211.332	1.53
211.71	2.06
212.088	1.79
212.465	2.25
212.843	2.8
213.221	3
213.598	2.48
213.976	2.51
214.353	2.62
214.731	3.16
215.108	3.07
215.485	2.88
215.863	2.35
216.24	2.71
216.617	2.32
216.994	1.89
217.371	1.97
217.749	2.12
218.126	2.34
218.503	2.71
218.88	2.64
219.256	2.72
219.633	2.61
220.01	2.86
220.387	2.62
220.764	2.59
221.14	2.09
221.517	2.17
221.894	1.89
222.27	2.31
222.647	2.46
223.023	2.38
223.4	2.32
223.776	2.1
224.153	1.86
224.529	2.06
224.905	2.4
225.282	2.35
225.658	2.41
226.034	2.61
226.41	2.52
226.786	2.74
227.162	2.72
227.538	2.53
227.914	2.51
228.29	2.56
228.666	2.74
229.042	2.73
229.418	2.78
229.793	2.76
230.169	2.53
230.545	2.61
230.92	2.69
231.296	2.79
231.672	2.61
232.047	2.39
232.422	2.3
232.798	2.27
233.173	2.26
233.549	2.4
233.924	2.28
234.299	2.2
234.674	2.13
235.05	1.98
235.425	1.93
235.8	1.96
236.175	1.93
236.55	1.96
236.925	1.87
237.3	1.8
237.675	1.66
238.049	1.62
238.424	1.6
238.799	1.49
239.174	1.51
239.548	1.55
239.923	1.56
240.297	1.42
240.672	1.37
241.046	1.4
241.421	1.4
241.795	1.37
242.17	1.27
242.544	1.3
242.918	1.12
243.293	1.14
243.667	1.09
244.041	1.17
244.415	1.19
244.789	1.19
245.163	1.14
245.537	1.15
245.911	1.07
246.285	1.09
246.659	1.04
247.033	1.07
247.406	1.07
247.78	1.09
248.154	1.1
248.528	1.09
248.901	1.05
249.275	1.02
249.648	1.08
250.022	1.04
250.395	0.91
250.769	0.92
251.142	0.98
251.515	1.01
251.888	1
252.262	1.06
252.635	1.06
253.008	1.05
253.381	1.05
253.754	1.04
254.127	0.97
254.5	0.99
254.873	0.93
255.246	0.99
255.619	0.96
255.992	0.96
256.364	0.96
256.737	0.94
257.11	0.95
257.483	1.01
257.855	1.04
258.228	1.01
258.6	1.02
258.973	1.08
259.345	1.07
259.718	1.07
260.09	1.08
260.462	1.12
260.834	1.15
261.207	1.17
261.579	1.16
261.951	1.14
262.323	1.06
262.695	1.01
263.067	1.04
263.439	1.12
263.811	1.07
264.183	1.05
264.555	1.02
264.927	1.08
265.298	1.08
265.67	1.1
266.042	1.07
266.413	1.05
266.785	1.03
267.156	1
267.528	1.05
267.899	0.99
268.271	0.91
268.642	0.96
269.013	0.97
269.385	0.93
269.756	0.89
270.127	0.83
270.498	0.81
270.87	0.8
271.241	0.84
271.612	0.91
271.983	0.89
272.354	0.86
272.724	0.84
273.095	0.86
273.466	0.88
273.837	0.88
274.208	0.87
274.578	0.9
274.949	0.94
275.32	0.97
275.69	0.93
276.061	0.93
276.431	0.94
276.802	0.96
277.172	0.99
277.542	0.94
277.913	0.98
278.283	1.02
278.653	1.06
279.023	1
279.394	1.02
279.764	0.97
280.134	1
280.504	0.96
280.874	0.93
281.244	0.91
281.614	0.81
281.983	0.85
282.353	0.89
282.723	0.88
283.093	0.86
283.462	0.85
283.832	0.83
284.202	0.73
284.571	0.7
284.941	0.74
285.31	0.71
285.68	0.66
286.049	0.59
286.418	0.6
286.788	0.68
287.157	0.62
287.526	0.55
287.895	0.54
288.264	0.51
288.633	0.5
289.002	0.5
289.371	0.45
289.74	0.42
290.109	0.38
290.478	0.39
290.847	0.4
291.216	0.28
291.585	0.21
291.953	0.23
292.322	0.26
292.691	0.25
293.059	0.3
293.428	0.34
293.796	0.33
294.165	0.28
294.533	0.22
294.901	0.24
295.27	0.25
295.638	0.23
296.006	0.14
296.374	0.14
296.743	0.16
297.111	0.13
297.479	0.14
297.847	0.13
298.215	0.23
298.583	0.2
298.95	0.25
299.318	0.3
299.686	0.29
300.054	0.27
300.422	0.32
300.789	0.39
301.157	0.42
301.525	0.36
301.892	0.39
302.26	0.32
302.627	0.28
302.994	0.28
303.362	0.35
303.729	0.42
304.097	0.37
304.464	0.36
304.831	0.4
305.198	0.39
305.565	0.38
305.932	0.39
306.299	0.35
306.666	0.41
307.033	0.41
307.4	0.39
307.767	0.39
308.134	0.38
308.501	0.37
308.867	0.35
309.234	0.43
309.601	0.37
309.967	0.36
310.334	0.33
310.701	0.37
311.067	0.26
311.433	0.3
311.8	0.32
312.166	0.32
312.533	0.3
312.899	0.31
313.265	0.4
313.631	0.45
313.997	0.42
314.363	0.46
314.729	0.47
315.096	0.43
315.461	0.48
315.827	0.48
316.193	0.45
316.559	0.41
316.925	0.45
317.291	0.37
317.656	0.31
318.022	0.28
318.388	0.25
318.753	0.24
319.119	0.26
319.484	0.28
319.85	0.2
320.215	0.28
320.581	0.3
320.946	0.29
321.311	0.33
321.676	0.24
322.042	0.15
322.407	0.17
322.772	0.13
323.137	0.09
323.502	0.05
323.867	-0
324.232	0.03
324.597	0.04
324.962	-0.01
325.327	0.07
325.691	0.05
326.056	0.06
326.421	0.11
326.785	0.1
327.15	0.14
327.514	0.13
327.879	0.13
328.243	0.09
328.608	0.04
328.972	0.06
329.337	-0
329.701	-0.08
330.065	-0.06
330.429	-0.09
330.794	-0.02
331.158	0.06
331.522	-0.02
331.886	0
332.25	-0.01
332.614	0.04
332.978	0.07
333.342	0.08
333.705	0.16
334.069	0.24
334.433	0.18
334.797	0.22
335.16	0.14
335.524	0.13
335.887	0.18
336.251	0.16
336.614	0.25
336.978	0.31
337.341	0.29
337.705	0.27
338.068	0.32
338.431	0.35
338.794	0.35
339.158	0.29
339.521	0.32
339.884	0.41
340.247	0.33
340.61	0.36
340.973	0.37
341.336	0.46
341.699	0.48
342.062	0.42
342.424	0.43
342.787	0.36
343.15	0.33
343.512	0.35
343.875	0.37
344.238	0.41
344.6	0.49
344.963	0.55
345.325	0.62
345.688	0.52
346.05	0.47
346.412	0.47
346.775	0.5
347.137	0.52
347.499	0.51
347.861	0.5
348.223	0.55
348.585	0.45
348.947	0.38
349.309	0.44
349.671	0.44
350.033	0.42
350.395	0.31
350.757	0.17
351.118	0.29
351.48	0.24
351.842	0.19
352.203	0.23
352.565	0.15
352.927	0.11
353.288	0.09
353.65	0.03
354.011	0.02
354.372	-0
354.734	-0.02
355.095	-0.04
355.456	-0.03
355.817	-0.16
356.179	-0.19
356.54	-0.23
356.901	-0.23
357.262	-0.24
357.623	-0.16
357.984	-0.13
358.345	-0.15
358.705	-0.16
359.066	-0.19
359.427	-0.11
359.788	-0.01
360.148	-0.15
360.509	-0.12
360.87	-0.04
361.23	-0.1
361.591	-0.03
361.951	0
362.312	0.09
362.672	0.04
363.032	-0.05
363.393	-0.04
363.753	0
364.113	0.03
364.473	0.02
364.833	0.15
365.193	0.15
365.553	0.24
365.913	0.33
366.273	0.33
366.633	0.29
366.993	0.21
367.353	0.21
367.713	0.15
368.072	0.15
368.432	0.2
368.792	0.25
369.151	0.33
369.511	0.32
369.87	0.24
370.23	0.25
370.589	0.19
370.949	0.13
371.308	0.06
371.667	0.03
372.027	0.03
372.386	-0.02
372.745	-0.06
373.104	0.01
373.463	0.09
373.822	0.06
374.181	0.06
374.54	0.04
374.899	-0.05
375.258	-0.05
375.617	-0.09
375.975	-0.08
376.334	-0.06
376.693	-0.04
377.052	-0.02
377.41	0.03
377.769	-0.05
378.127	-0.11
378.486	-0.11
378.844	-0.17
379.202	-0.11
379.561	-0.13
379.919	-0.07
380.277	-0.06
380.636	-0.05
380.994	0.03
381.352	0.02
381.71	0.08
382.068	-0
382.426	-0.08
382.784	-0.07
383.142	-0.06
383.5	-0.01
383.857	0.04
384.215	0.05
384.573	0.12
384.931	0.07
385.288	0.03
385.646	0.03
386.003	0.08
386.361	-0.04
386.718	0.02
387.076	0.11
387.433	0.1
387.791	0.17
388.148	0.01
388.505	0.02
388.862	0.03
389.22	0.04
389.577	0.11
389.934	0.05
390.291	0.11
390.648	0.11
391.005	0.2
391.362	0.17
391.718	0.07
392.075	0.08
392.432	0.03
392.789	0.05
393.145	0.05
393.502	0.08
393.859	0.07
394.215	0.11
394.572	0.2
394.928	0.16
395.285	0.13
395.641	0.12
395.997	0.17
396.354	0.2
396.71	0.22
397.066	0.26
397.422	0.24
397.778	0.2
398.134	0.2
398.491	0.21
398.846	0.19
399.202	0.2
399.558	0.15
399.914	0.23
400.27	0.21
400.626	0.21
400.981	0.25
401.337	0.26
401.693	0.22
402.048	0.22
402.404	0.19
402.759	0.27
403.115	0.26
403.47	0.18
403.826	0.23
404.181	0.28
404.536	0.23
404.892	0.11
405.247	0.08
405.602	0.09
405.957	0.14
406.312	0.19
406.667	0.19
407.022	0.31
407.377	0.37
407.732	0.38
408.087	0.39
408.442	0.34
408.796	0.22
409.151	0.33
409.506	0.45
409.86	0.42
410.215	0.42
410.57	0.45
410.924	0.44
411.279	0.4
411.633	0.37
411.987	0.4
412.342	0.37
412.696	0.39
413.05	0.41
413.404	0.45
413.758	0.54
414.113	0.53
414.467	0.57
414.821	0.57
415.175	0.61
415.529	0.63
415.882	0.5
416.236	0.44
416.59	0.55
416.944	0.55
417.298	0.68
417.651	0.65
418.005	0.64
418.358	0.69
418.712	0.72
419.065	0.67
419.419	0.7
419.772	0.74
420.126	0.83
420.479	0.9
420.832	0.97
421.185	1.11
421.539	1.09
421.892	1.09
422.245	1.15
422.598	1.11
422.951	1.15
423.304	1.12
423.657	1.2
424.01	1.27
424.363	1.33
424.715	1.46
425.068	1.52
425.421	1.52
425.773	1.52
426.126	1.65
426.479	1.87
426.831	1.93
427.184	1.92
427.536	2.05
427.889	2.24
428.241	2.23
428.593	2.27
428.945	2.21
429.298	2.32
429.65	2.3
430.002	2.36
430.354	2.51
430.706	2.65
431.058	2.72
431.41	2.8
431.762	2.76
432.114	2.85
432.466	2.82
432.817	2.77
433.169	2.76
433.521	2.68
433.872	2.66
434.224	2.71
434.576	2.7
434.927	2.55
435.279	2.51
435.63	2.51
435.981	2.45
436.333	2.38
436.684	2.18
437.035	2.06
437.387	2.1
437.738	2.13
438.089	2.13
438.44	2.1
438.791	1.98
439.142	1.85
439.493	1.81
439.844	1.79
440.195	1.74
440.545	1.92
440.896	1.85
441.247	1.91
441.598	2.06
441.948	2.04
442.299	2.08
442.649	2.09
443	2.11
443.35	2.11
443.701	2.12
444.051	2.05
444.401	2.05
444.752	2.07
445.102	1.93
445.452	2.04
445.802	2.2
446.152	2.22
446.502	2.23
446.852	2.2
447.202	2.24
447.552	2.28
447.902	2.33
448.252	2.28
448.602	3.58
448.952	3.8
449.301	3.86
449.651	4
450.001	4
450.35	3.94
450.7	3.99
451.049	4.07
451.399	4.17
451.748	4.18
452.097	4.26
452.447	4.37
452.796	4.45
453.145	4.57
453.494	4.67
453.843	4.81
454.193	4.93
454.542	4.97
454.891	4.95
455.239	5.06
455.588	5.1
455.937	5.2
456.286	5.33
456.635	5.31
456.984	5.45
457.332	4.08
457.681	4
458.03	3.91
458.378	3.94
458.727	4.16
459.075	4.32
459.423	4.43
459.772	4.51
460.12	4.64
460.468	4.57
460.817	4.65
461.165	4.73
461.513	4.72
461.861	4.66
462.209	4.69
462.557	4.83
462.905	4.88
463.253	4.87
463.601	4.97
463.949	4.96
464.297	4.97
464.644	5.1
464.992	5.1
465.34	5.2
465.687	5.13
466.035	5.09
466.383	5.02
466.73	4.97
467.078	4.86
467.425	4.68
467.772	4.5
468.12	4.48
468.467	4.4
468.814	4.22
469.161	4.23
469.508	4.25
469.856	4.09
470.203	3.93
470.55	3.95
470.897	3.86
471.243	3.65
471.59	3.46
471.937	3.41
472.284	3.39
472.631	3.4
472.977	3.33
473.324	3.17
473.671	3.03
474.017	2.99
474.364	2.94
474.71	2.8
475.057	2.77
475.403	2.78
475.749	2.76
476.096	2.7
476.442	2.56
476.788	2.46
477.134	2.39
477.48	2.34
477.826	2.39
478.172	2.4
478.518	2.35
478.864	2.58
479.21	2.46
479.556	2.59
479.902	2.62
480.248	2.62
480.593	2.65
480.939	2.7
481.285	2.76
481.63	2.81
481.976	2.85
482.321	2.96
482.667	3.15
483.012	3.25
483.357	3.41
483.703	3.51
484.048	3.71
484.393	3.9
484.738	4.15
485.084	4.5
485.429	4.75
485.774	5.05
486.119	5.38
486.464	5.61
486.808	5.83
487.153	6.16
487.498	6.34
487.843	6.65
488.188	6.95
488.532	7.4
488.877	7.87
489.222	8.38
489.566	8.84
489.911	9.29
490.255	9.81
490.6	10.32
490.944	10.74
491.288	11.12
491.633	11.61
491.977	12.05
492.321	12.65
492.665	13.11
493.009	13.67
493.353	14.2
493.697	14.66
494.041	15.17
494.385	15.65
494.729	16.09
495.073	16.43
495.417	16.84
495.76	17.46
496.104	18.04
496.448	18.66
496.791	19.18
497.135	19.64
497.479	20.17
497.822	20.69
498.165	21.06
498.509	21.42
498.852	21.88
499.196	22.33
499.539	22.85
499.882	23.24
500.225	23.66
500.568	24.1
500.911	24.33
501.254	24.69
501.597	24.93
501.94	25.18
502.283	25.38
502.626	25.56
502.969	25.75
503.312	25.99
503.654	26.41
503.997	26.66
504.34	26.7
504.682	26.87
505.025	26.98
505.367	27.14
505.71	27.22
506.052	27.26
506.395	27.23
506.737	27.33
507.079	27.54
507.421	27.6
507.764	27.75
508.106	27.85
508.448	28.01
508.79	28
509.132	27.95
509.474	28.05
509.816	27.98
510.158	28.02
510.499	28.13
510.841	28.2
511.183	28.39
511.525	28.54
511.866	28.59
512.208	28.58
512.549	28.65
512.891	28.71
513.232	28.68
513.574	28.81
513.915	28.85
514.256	28.94
514.598	28.95
514.939	29.09
515.28	29.06
515.621	29
515.962	28.98
516.303	28.79
516.644	28.69
516.985	28.64
517.326	28.62
517.667	28.69
518.008	28.71
518.349	28.77
518.69	28.66
519.03	28.52
519.371	28.56
519.712	28.3
520.052	28.13
520.393	28.04
520.733	27.93
521.074	27.93
521.414	28.02
521.754	27.96
522.095	27.77
522.435	27.67
522.775	27.66
523.115	27.61
523.455	27.34
523.795	27.38
524.135	27.34
524.475	27.35
524.815	27.31
525.155	27.34
525.495	27.23
525.835	27.1
526.175	27.07
526.514	27.02
526.854	26.96
527.194	27
527.533	26.96
527.873	26.87
528.212	27.02
528.552	27.09
528.891	27.13
529.23	27.15
529.57	27.01
529.909	26.87
530.248	26.88
530.587	26.91
530.927	26.88
531.266	26.89
531.605	26.81
531.944	26.92
532.283	26.77
532.621	26.6
532.96	26.48
533.299	26.51
533.638	26.34
533.977	26.26
534.315	26.37
534.654	26.22
534.992	26.08
535.331	26.15
535.67	26.08
536.008	25.89
536.346	25.77
536.685	25.64
537.023	25.68
537.361	25.62
537.7	25.62
538.038	25.71
538.376	25.78
538.714	25.76
539.052	25.65
539.39	25.61
539.728	25.41
540.066	25.55
540.404	25.37
540.741	25.36
541.079	25.43
541.417	25.28
541.755	25.11
542.092	25.06
542.43	25.04
542.767	24.97
543.105	24.98
543.442	25.03
543.78	24.78
544.117	24.65
544.454	24.69
544.792	24.67
545.129	24.75
545.466	24.55
545.803	24.43
546.14	24.34
546.477	24.19
546.814	24.11
547.151	24.01
547.488	24.12
547.825	24.02
548.162	24.05
548.499	23.88
548.835	23.95
549.172	23.95
549.509	24.05
549.845	24.28
550.182	24.39
550.518	24.53
550.855	24.53
551.191	24.57
551.528	24.5
551.864	24.53
552.2	24.6
552.537	24.66
552.873	24.71
553.209	24.73
553.545	24.64
553.881	24.68
554.217	24.67
554.553	24.61
554.889	24.61
555.225	24.47
555.561	24.56
555.896	24.44
556.232	24.66
556.568	24.66
556.903	24.78
557.239	24.83
557.575	24.99
557.91	24.91
558.245	24.81
558.581	24.97
558.916	25.06
559.252	25.3
559.587	25.36
559.922	25.48
560.257	25.51
560.592	25.54
560.928	25.68
561.263	25.72
561.598	25.88
561.933	25.97
562.267	26.25
562.602	26.36
562.937	26.55
563.272	26.66
563.607	26.76
563.941	26.79
564.276	26.81
564.611	26.91
564.945	27.02
565.28	27.05
565.614	27.26
565.949	27.23
566.283	27.29
566.617	27.42
566.951	27.51
567.286	27.44
567.62	27.3
567.954	27.3
568.288	27.56
568.622	27.52
568.956	27.73
569.29	27.76
569.624	27.97
569.958	28
570.292	28.15
570.626	28.1
570.959	28.16
571.293	28.28
571.627	28.26
571.96	28.45
572.294	28.61
572.627	28.75
572.961	28.76
573.294	28.86
573.627	28.99
573.961	28.92
574.294	28.97
574.627	29.02
574.961	29.05
575.294	29.03
575.627	29.19
575.96	29.26
576.293	29.42
576.626	29.38
576.959	29.45
577.292	29.51
577.624	29.66
577.957	29.69
578.29	29.86
578.623	29.92
578.955	30.02
579.288	30.13
579.62	30.09
579.953	30.28
580.285	30.36
580.618	30.39
580.95	30.46
581.282	30.55
581.615	30.74
581.947	30.79
582.279	30.95
582.611	31.16
582.943	31.25
583.275	31.45
583.607	31.61
583.939	31.75
584.271	31.93
584.603	31.95
584.935	32.11
585.267	32.36
585.598	32.32
585.93	32.26
586.262	32.28
586.593	32.18
586.925	32.19
587.256	32.3
587.588	32.4
587.919	32.69
588.25	32.88
588.582	32.95
588.913	33.11
589.244	33.16
589.575	33.38
589.907	33.41
590.238	33.56
590.569	33.65
590.9	33.67
591.231	33.79
591.562	33.75
591.892	33.93
592.223	34.1
592.554	34.24
592.885	34.44
593.215	34.51
593.546	34.66
593.877	34.92
594.207	35.17
594.538	35.46
594.868	35.8
595.198	35.97
595.529	36.17
595.859	36.41
596.189	36.55
596.52	36.74
596.85	36.98
597.18	37.01
597.51	37.22
597.84	37.26
598.17	37.42
598.5	37.57
598.83	37.71
599.16	37.9
599.489	38.2
599.819	38.38
600.149	38.54
600.479	38.56
600.808	38.66
601.138	38.78
601.467	39.16
601.797	39.32
602.126	39.44
602.456	39.68
602.785	39.76
603.114	39.98
603.443	40.16
603.773	40.39
604.102	40.4
604.431	40.39
604.76	40.52
605.089	40.58
605.418	40.72
605.747	41.03
606.076	41.13
606.405	41.28
606.733	41.55
607.062	41.75
607.391	41.99
607.72	42.23
608.048	42.7
608.377	43.04
608.705	43.46
609.034	43.67
609.362	44
609.69	44.12
610.019	44.4
610.347	44.74
610.675	45.05
611.004	45.36
611.332	45.6
611.66	45.81
611.988	45.85
612.316	46.05
612.644	46.43
612.972	46.6
613.3	47.13
613.627	47.65
613.955	47.77
614.283	48.26
614.611	48.59
614.938	48.8
615.266	49.09
615.593	49.48
615.921	49.58
616.248	49.72
616.576	50.2
616.903	50.5
617.23	51.39
617.558	52
617.885	52.18
618.212	52.35
618.539	52.73
618.866	52.78
619.193	52.57
619.52	52.54
619.847	52.98
620.174	53.31
620.501	53.72
620.828	53.68
621.155	53.8
621.481	53.73
621.808	53.77
622.135	53.88
622.461	53.97
622.788	54.02
623.114	54.4
623.441	54.74
623.767	54.86
624.093	55.14
624.42	55.54
624.746	55.59
625.072	55.88
625.398	56.02
625.725	55.96
626.051	56.28
626.377	56.92
626.703	56.97
627.029	57.07
627.354	57.79
627.68	58.51
628.006	58.73
628.332	58.89
628.658	59.08
628.983	59.98
629.309	60.58
629.634	60.96
629.96	61.22
630.285	61.39
630.611	61.25
630.936	61.4
631.262	61.68
631.587	62.31
631.912	63.02
632.237	63.71
632.562	64.02
632.887	64.75
633.213	65.39
633.538	65.42
633.863	65.32
634.187	65.38
634.512	64.92
634.837	65.45
635.162	65.83
635.487	66.4
635.811	66.56
636.136	67.01
636.461	67.32
636.785	67.62
637.11	67.67
637.434	67.56
637.758	67.9
638.083	68.37
638.407	69.23
638.731	69.86
639.056	69.85
639.38	69.7
639.704	68.97
640.028	68.98
640.352	68.89
640.676	68.98
641	68.3
641.324	67.72
641.648	68.39
641.972	69.3
642.295	69.5
642.619	70.5
642.943	70.86
643.266	71.29
643.59	70.87
643.913	70.26
644.237	69.96
644.56	70.28
644.884	70.78
645.207	70.46
645.53	71.41
645.854	71.49
646.177	71.35
646.5	71.81
646.823	71.79
647.146	72.41
647.469	72.11
647.792	72.89
648.115	72.81
648.438	73.1
648.761	73.55
649.084	73.26
649.406	72.62
649.729	71.91
650.052	72.15
650.374	72.34
650.697	72.14
651.019	71.82
651.342	71.79
651.664	71.94
651.987	72.12
652.309	72.19
652.631	72.23
652.953	72.11
653.276	72.39
653.598	72.11
653.92	72
654.242	72.12
654.564	71.97
654.886	71.91
655.208	71.86
655.53	72.05
655.851	71.95
656.173	72.1
656.495	72.13
656.816	71.76
657.138	71.9
657.46	72.98
657.781	74.08
658.103	73.73
658.424	73.98
658.746	75
659.067	76.22
659.388	76.67
659.709	76.87
660.031	77.36
660.352	78.23
660.673	78.72
660.994	79.4
661.315	80.04
661.636	80.45
661.957	81.87
662.278	82.4
662.599	81.77
662.919	81.97
663.24	82.5
663.561	82.55
663.881	83.63
664.202	82.41
664.523	81.47
664.843	81.24
665.164	81.49
665.484	81.21
665.804	81.79
666.125	82.32
666.445	82.43
666.765	81.07
667.085	81.05
667.405	81.38
667.726	80.93
668.046	80.73
668.366	80.41
668.686	80.73
669.005	80.72
669.325	80.49
669.645	80.45
669.965	80.32
670.285	80.4
670.604	80.7
670.924	81.69
671.243	81.27
671.563	81.1
671.882	80.22
672.202	79.77
672.521	80.45
672.841	80.62
673.16	80.41
673.479	80.14
673.798	80.1
674.117	79.48
674.437	79.38
674.756	79.62
675.075	79.04
675.394	78.27
675.713	78.23
676.031	78.73
676.35	79.29
676.669	78.27
676.988	79.11
677.306	78.27
677.625	78.24
677.944	78.02
678.262	78
678.581	78.39
678.899	77.7
679.218	77.86
679.536	78.4
679.854	78.07
680.172	78.29
680.491	78.77
680.809	78.61
681.127	78.88
681.445	78.91
681.763	79.07
682.081	79.36
682.399	79.04
682.717	79.66
683.035	79.85
683.352	79.61
683.67	80.14
683.988	79.52
684.306	78.64
684.623	79.49
684.941	79.19
685.258	79.59
685.576	80.08
685.893	79.18
686.211	79.25
686.528	78.88
686.845	79.1
687.162	79.44
687.48	78.44
687.797	78.52
688.114	79.44
688.431	79
688.748	79.61
689.065	78.62
689.382	77.87
689.699	78.53
690.015	78.07
690.332	78.48
690.649	77.92
690.966	78.51
691.282	78.89
691.599	78.33
691.915	78.34
692.232	78.38
692.548	77.05
692.865	77.27
693.181	77.17
693.497	77.18
693.813	78.91
694.13	77.37
694.446	78.5
694.762	79.09
695.078	78.95
695.394	79.91
695.71	80.32
696.026	79.62
696.342	79.9
696.658	79.68
696.973	79.99
697.289	80.21
697.605	79.73
697.92	80.22
698.236	79.91
698.551	80.57
698.867	80
699.182	80.79
699.498	81.42
699.813	82.09
700.128	82.89
700.444	83.08
700.759	81.48
701.074	81.22
701.389	80.95
701.704	79.55
702.019	81.36
702.334	81.14
702.649	80.42
702.964	80.19
703.279	79.3
703.594	79.06
703.908	79.54
704.223	79.41
704.538	80.47
704.852	80.09
705.167	79.72
705.481	80.1
705.796	79.81
706.11	77.99
706.425	77.81
706.739	79.01
707.053	79.02
707.368	79.69
707.682	78.96
707.996	79.2
708.31	80.78
708.624	81.37
708.938	82.2
709.252	82.09
709.566	81.59
709.88	80.68
710.193	79.97
710.507	79.91
710.821	80.35
711.135	81.47
711.448	81.84
711.762	81.38
712.075	81.19
712.389	80.79
712.702	80.33
713.015	81.19
713.329	80.04
713.642	80.68
713.955	83.48
714.269	83.39
714.582	83.02
714.895	81.57
715.208	80.38
715.521	81.4
715.834	79.68
716.147	78.85
716.459	79.84
716.772	80.85
717.085	80.89
717.398	81.93
717.71	82.17
718.023	82.66
718.336	83.32
718.648	82.79
718.961	82.03
719.273	83.37
719.585	83.14
719.898	82.45
720.21	82.25
720.522	83.97
720.834	84.78
721.147	86.92
721.459	87.26
721.771	87.89
722.083	89.32
722.395	88.08
722.707	88.57
723.019	86.94
723.33	88.1
723.642	91.78
723.954	90.07
724.265	88.93
724.577	87.38
724.889	86.93
725.2	85.86
725.512	85.99
725.823	86.79
726.135	86.47
726.446	86.95
726.757	86.78
727.068	86.2
727.38	86.24
727.691	86.14
728.002	85.54
728.313	85.09
728.624	84.12
728.935	82.61
729.246	81.35
729.557	81.64
729.867	80.84
730.178	81.65
730.489	81.77
730.8	84.5
731.11	82.5
731.421	80.92
731.731	81.67
732.042	81.87
732.352	81.23
732.663	81.45
732.973	81.82
733.283	82.37
733.594	81.48
733.904	80.9
734.214	80.55
734.524	81.81
734.834	82.88
735.144	83.3
735.454	84.36
735.764	85.4
736.074	86.92
736.384	87.7
736.694	89.08
737.003	89.7
737.313	88.11
737.623	88
737.932	87.34
738.242	87.11
738.551	86.75
738.861	89.47
739.17	87.96
739.479	88.2
739.789	88.95
740.098	89.11
740.407	88.99
740.716	91.97
741.025	90.07
741.334	88.5
741.643	91.22
741.952	92.15
742.261	91.69
742.57	89.57
742.879	89.18
743.188	88.59
743.497	88.05
743.805	86.83
744.114	83.9
744.422	82.73
744.731	82.5
745.04	80.58
745.348	82.36
745.656	82.35
745.965	84.88
746.273	84.74
746.581	80.54
746.889	83.56
747.198	83.32
747.506	81.84
747.814	82.94
748.122	81.53
748.43	77.86
748.738	78.55
749.046	80.13
749.353	79.34
749.661	80.29
749.969	80.73
750.277	80.34
750.584	80.93
750.892	81.59
751.199	80.08
751.507	79.93
751.814	82.88
752.122	85.03
752.429	87.19
752.736	89.12
753.044	86.38
753.351	85.18
753.658	82
753.965	79.8
754.272	84.46
754.579	85.39
754.886	89.41
755.193	89.99
755.5	90.81
755.807	92.02
756.114	93.75
756.42	97.37
756.727	100.04
757.034	101.45
757.34	99.91
757.647	99.65
757.953	100.73
758.26	100.91
758.566	99.09
758.872	99.48
759.179	99.98
759.485	98.25
759.791	97.34
760.097	95.31
760.403	97.67
760.709	99.36
761.015	103.53
761.321	106.43
761.627	105.35
761.933	101.51
762.239	100.42
762.545	96.69
762.851	92.32
763.156	95.74
763.462	92.87
763.767	88.24
764.073	86.06
764.378	85.83
764.684	83.71
764.989	84.69
765.295	80.62
765.6	76.72
765.905	74.86
766.21	76.56
766.515	76.93
766.821	75.56
767.126	77.72
767.431	78
767.736	82.32
768.041	82.45
768.345	84.39
768.65	82.03
768.955	82.55
769.26	85.4
769.564	85.94
769.869	82.85
770.174	84.23
770.478	93.8
770.783	88.08
771.087	92.88
771.391	100.7
771.696	101.22
772	93.96
772.304	97.76
772.608	103.89
772.913	112.74
773.217	121.04
773.521	128.06
773.825	131.16
774.129	129.43
774.433	128.93
774.736	125.68
775.04	130.45
775.344	126.29
775.648	118.66
775.951	119.89
776.255	117.89
776.559	113.02
776.862	105.46
777.166	107.79
777.469	110.53
777.772	107.73
778.076	97.43
778.379	100.14
778.682	96.54
778.985	94.11
779.289	91.96
779.592	102.89
779.895	94.4
780.198	82.73
780.501	77.52
780.804	78.3
781.106	78.99
781.409	78.06
781.712	89.5
782.015	93.64
782.317	103.51
782.62	98.12
782.923	94.81
783.225	93.54
783.527	89.1
783.83	92.99
784.132	99.91
784.435	98.15
784.737	102.68
785.039	116.7
785.341	123.11
785.643	131.51
785.945	120.69
786.248	121.5
786.55	126.55
786.851	123.3
787.153	125.45
787.455	122.49
787.757	127.86
788.059	140.35
788.36	120.85
788.662	121.84
788.964	109.09
789.265	91.53
789.567	83.31
789.868	72.62
790.17	76.3
790.471	75.87
790.772	73.26
791.074	85.96
791.375	75.29
791.676	64.63
791.977	62.8
792.278	53.23
792.579	46.55
792.88	41.88
793.181	36.04
793.482	45.79
793.783	55.23
794.083	56.94
794.384	59.36
794.685	53.84
794.986	51.26
795.286	51.02
795.587	62.22
795.887	68.51
796.188	71.17
796.488	80.99
796.788	82.22
797.089	81.98
797.389	87.8
797.689	108.68
797.989	131.37
798.289	146.01
798.589	134.14
798.889	138.84
799.189	202.85
799.489	275.06
799.789	279.37
800.089	243.99
800.389	204.62
800.688	183.52
800.988	228.63
801.288	215.69
801.587	209.02
801.887	232.25
802.186	189.76
802.486	228.33
802.785	327.29
803.085	286.61
803.384	337.45
803.683	225.2
803.982	169.54
804.281	196.08
804.58	450
804.879	-289.53
805.178	359.33
805.477	96.99
805.776	-37.32
806.075	45.38
806.374	130
806.673	95.36
806.971	164.87
807.27	99.51
807.569	165.99
807.867	738
808.166	441.6
808.464	181.57
808.763	180.39
809.061	128.79
809.359	118.97
809.658	159.25
809.956	151.17
810.254	186.09
810.552	158.79
810.85	172.65
811.148	192.25
811.446	179.75
811.744	147.83
812.042	168.82
812.34	162.52
812.638	171.48
812.935	148.07
813.233	135.49
813.531	158.24
813.828	142.03
814.126	158.86
814.423	142.1
814.721	164.1
815.018	102.86
815.316	97.55
815.613	92.88
815.91	103.65
816.207	124.17
816.504	146.2
816.802	129.56
817.099	152.37
817.396	119.38
817.693	108.8
817.99	115.42
818.286	78.53
818.583	83.54
818.88	109.77
819.177	155.64
819.473	130.98
819.77	110.2
820.067	107.53
820.363	164.02
820.66	229.36
820.956	202.38
821.252	190.73
821.549	152.3
821.845	170.18
822.141	162.88
822.437	187.93
822.734	162.59
823.03	162.59
823.326	144.78
823.622	116.74
823.918	150.93
824.213	150.63
824.509	136
824.805	143.41
825.101	149.28
825.397	140.44
825.692	226.03
825.988	199.19
826.283	159.11
826.579	135.22
826.874	152.16
827.17	157.1
827.465	150.64
827.76	118.77
828.056	98.91
828.351	115.7
828.646	100.3
828.941	88.06
829.236	81.63
829.531	90.19
829.826	97.77
830.121	97.53
830.416	149.55
830.711	153.6
831.006	207.73
831.3	160.12
831.595	171.39
831.89	163.4
832.184	164.97
832.479	160.91
832.773	179.23
833.068	157.32
833.362	192.31
833.656	190.93
833.951	363.65
834.245	363.86
834.539	660.47
834.833	455.5
835.127	-8173.53
835.421	-4915.52
835.715	-1318.54
836.009	-595.93
836.303	-356.09
836.597	-513.49
836.891	-1319.41
837.185	1146.84
837.478	-870.66
837.772	1052.02
838.066	366.61
838.359	307.14
838.653	462.33
838.946	937.38
839.24	355.62
839.533	1260.91
839.826	1810
840.119	-7927.78
840.413	4543.33
840.706	-2654.76
840.999	24450
841.292	316.33
841.585	233.89
841.878	86.29
842.171	64.53
842.464	49.11
842.757	45.75
843.049	60.06
843.342	76.39
843.635	56.61
843.927	109.01
844.22	225.88
844.513	1315.12
844.805	6821.43
845.098	1152.56
845.39	-143.89
845.682	-270
845.975	-255.38
846.267	11116.67
846.559	-1007.78
846.851	378
847.143	420.06
847.435	272.07
847.727	382.09
848.019	312.78
848.311	-223.63
848.603	-103.78
848.895	-131.11
849.186	-85.04
849.478	-105.8
849.77	-109.86
850.061	-112.01
850.353	-89.97
850.645	-119.61
850.936	-157.01
851.227	-93.19
851.519	-84.32
851.81	-51.21
852.101	-64.86
852.393	-48.89
852.684	-64.01
852.975	-54.83
853.266	-67.05
853.557	-56.89
853.848	-47.67
854.139	-43.83
854.43	-51.62
854.72	-34.02
855.011	-47.07
855.302	-46.83
855.593	-71.14
855.883	-124.41
856.174	-128.24
856.464	-129.03
856.755	-113.28
857.045	-130.71
857.336	-132.91
857.626	-117.82
857.916	-130.33
858.206	-103.66
858.497	-163.81
858.787	-199.01
859.077	-299.49
859.367	-1418.85
859.657	-1525.44
859.947	-599.66
860.237	-816.67
860.527	-518.42
860.816	-289.88
861.106	2064.81
861.396	5250
861.685	463.01
861.975	425.46
862.265	345.19
862.554	339.36
862.844	506.77
863.133	612.64
863.422	570.72
863.712	536.96
864.001	376.78
864.29	537.93
864.579	1262.24
864.868	1526.19
865.157	638.06
865.446	387.14
865.735	422.48
866.024	343.85
866.313	363.39
866.602	-1244.44
866.891	-1440.32
867.179	1434.62
867.468	882.56
