Data from T2_Reflection__24__19-04-12-255.txt Node

Date: Fri Jun 04 19:04:12 CEST 2021
User: mabdelazizm
Spectrometer: FLMS18565
Trigger mode: 0
Integration Time (sec): 2.000000E0
Scans to average: 1
Electric dark correction enabled: true
Nonlinearity correction enabled: false
Boxcar width: 12
XAxis mode: Wavelengths
Number of Pixels in Spectrum: 2048
>>>>>Begin Spectral Data<<<<<
179.071	96.54
179.452	40.7
179.833	-10.44
180.214	-90.38
180.595	-107.47
180.977	-149.43
181.358	-52.18
181.739	28.49
182.12	48.86
182.501	83.22
182.882	80.4
183.262	174.29
183.643	14.48
184.024	-18.43
184.405	-8.82
184.786	-6.58
185.166	-6.44
185.547	5.48
185.927	4.9
186.308	-5.3
186.689	10.42
187.069	14.51
187.449	7.29
187.83	5.25
188.21	5.8
188.59	7.64
188.971	12.3
189.351	10.02
189.731	12.92
190.111	15.75
190.491	10.1
190.871	10.55
191.251	10.19
191.631	9.67
192.011	8.52
192.391	6.59
192.771	8.76
193.151	9.31
193.531	10.81
193.91	11.57
194.29	11.1
194.67	10.72
195.049	8
195.429	8.28
195.808	11.96
196.188	8.74
196.567	9.16
196.946	12.76
197.326	13.26
197.705	13.59
198.084	13.05
198.464	10.42
198.843	13.87
199.222	15.43
199.601	13.9
199.98	15.62
200.359	13.46
200.738	12.22
201.117	10.85
201.496	8.1
201.875	8.86
202.254	8.24
202.632	7.38
203.011	8.83
203.39	7.19
203.768	7.81
204.147	9.58
204.525	9.2
204.904	8.39
205.282	6.71
205.661	4.02
206.039	5.4
206.418	1.77
206.796	1.61
207.174	-0
207.552	0.53
207.931	0.21
208.309	-0.99
208.687	-2.24
209.065	-0.33
209.443	-1.69
209.821	-2.34
210.199	-4.09
210.577	-0.9
210.954	3.19
211.332	2.73
211.71	1.85
212.088	4.82
212.465	5.91
212.843	7.29
213.221	7.05
213.598	6.51
213.976	6.45
214.353	6.72
214.731	4.87
215.108	6.44
215.485	4.57
215.863	3.85
216.24	3.94
216.617	3.5
216.994	3.31
217.371	6
217.749	6.25
218.126	5.63
218.503	4.21
218.88	3.98
219.256	3.81
219.633	4.18
220.01	2.72
220.387	1.99
220.764	2.71
221.14	2.87
221.517	2.81
221.894	2.15
222.27	1.9
222.647	1.98
223.023	1.18
223.4	1.62
223.776	1.92
224.153	2.29
224.529	2.66
224.905	3.32
225.282	3.76
225.658	3.8
226.034	3.83
226.41	3.88
226.786	3.53
227.162	4.07
227.538	4.39
227.914	4.62
228.29	4.79
228.666	4.75
229.042	4.74
229.418	4.81
229.793	4.64
230.169	4.57
230.545	4.33
230.92	4
231.296	3.94
231.672	3.75
232.047	3.68
232.422	3.74
232.798	3.72
233.173	3.64
233.549	3.69
233.924	3.91
234.299	3.99
234.674	4.02
235.05	3.88
235.425	3.88
235.8	3.93
236.175	3.91
236.55	3.85
236.925	3.78
237.3	3.75
237.675	3.77
238.049	3.69
238.424	3.65
238.799	3.73
239.174	3.78
239.548	3.75
239.923	3.9
240.297	3.86
240.672	3.86
241.046	4.01
241.421	4.07
241.795	4.17
242.17	4.13
242.544	4.11
242.918	4.1
243.293	4.01
243.667	3.89
244.041	3.95
244.415	3.91
244.789	3.85
245.163	3.8
245.537	3.79
245.911	3.8
246.285	3.86
246.659	3.88
247.033	3.94
247.406	4.02
247.78	4.1
248.154	4.02
248.528	4.04
248.901	4.07
249.275	4
249.648	4.09
250.022	4.08
250.395	4.01
250.769	3.97
251.142	3.94
251.515	3.95
251.888	3.94
252.262	3.92
252.635	3.95
253.008	3.96
253.381	3.89
253.754	3.92
254.127	3.97
254.5	3.92
254.873	3.93
255.246	3.89
255.619	3.82
255.992	3.8
256.364	3.69
256.737	3.66
257.11	3.59
257.483	3.6
257.855	3.61
258.228	3.56
258.6	3.55
258.973	3.53
259.345	3.57
259.718	3.55
260.09	3.51
260.462	3.46
260.834	3.47
261.207	3.48
261.579	3.46
261.951	3.41
262.323	3.35
262.695	3.37
263.067	3.39
263.439	3.39
263.811	3.43
264.183	3.39
264.555	3.37
264.927	3.44
265.298	3.43
265.67	3.42
266.042	3.37
266.413	3.35
266.785	3.33
267.156	3.27
267.528	3.27
267.899	3.24
268.271	3.18
268.642	3.09
269.013	3.09
269.385	3.08
269.756	3.1
270.127	3.04
270.498	3.06
270.87	3.06
271.241	3.03
271.612	3.02
271.983	2.99
272.354	2.92
272.724	2.87
273.095	2.89
273.466	2.83
273.837	2.85
274.208	2.77
274.578	2.77
274.949	2.82
275.32	2.82
275.69	2.78
276.061	2.74
276.431	2.77
276.802	2.73
277.172	2.75
277.542	2.74
277.913	2.76
278.283	2.76
278.653	2.77
279.023	2.73
279.394	2.74
279.764	2.72
280.134	2.73
280.504	2.7
280.874	2.72
281.244	2.72
281.614	2.75
281.983	2.74
282.353	2.75
282.723	2.79
283.093	2.75
283.462	2.8
283.832	2.8
284.202	2.75
284.571	2.72
284.941	2.78
285.31	2.86
285.68	2.85
286.049	2.83
286.418	2.83
286.788	2.89
287.157	2.91
287.526	2.87
287.895	2.91
288.264	2.92
288.633	2.88
289.002	2.84
289.371	2.85
289.74	2.83
290.109	2.78
290.478	2.75
290.847	2.77
291.216	2.77
291.585	2.68
291.953	2.6
292.322	2.58
292.691	2.52
293.059	2.47
293.428	2.49
293.796	2.51
294.165	2.49
294.533	2.43
294.901	2.41
295.27	2.45
295.638	2.45
296.006	2.31
296.374	2.26
296.743	2.23
297.111	2.15
297.479	2.12
297.847	2.14
298.215	2.13
298.583	2.11
298.95	2.11
299.318	2.14
299.686	2.12
300.054	2.09
300.422	2.12
300.789	2.11
301.157	2.17
301.525	2.16
301.892	2.14
302.26	2.13
302.627	2.14
302.994	2.09
303.362	2.13
303.729	2.07
304.097	2.04
304.464	2
304.831	1.98
305.198	2.04
305.565	2.04
305.932	2.06
306.299	2.06
306.666	2.02
307.033	1.99
307.4	2
307.767	1.96
308.134	1.95
308.501	1.97
308.867	1.98
309.234	2.02
309.601	2.01
309.967	2.01
310.334	2.02
310.701	2.02
311.067	2.02
311.433	2.07
311.8	2.02
312.166	2.03
312.533	1.99
312.899	2.05
313.265	2.07
313.631	2.07
313.997	2.06
314.363	2.03
314.729	2.03
315.096	2.03
315.461	2.01
315.827	2.07
316.193	2.16
316.559	2.17
316.925	2.16
317.291	2.18
317.656	2.19
318.022	2.15
318.388	2.15
318.753	2.07
319.119	2.1
319.484	2.1
319.85	2.1
320.215	2.09
320.581	2.07
320.946	2.11
321.311	2.11
321.676	2.11
322.042	2.09
322.407	2.06
322.772	2.12
323.137	2.2
323.502	2.25
323.867	2.28
324.232	2.2
324.597	2.2
324.962	2.18
325.327	2.11
325.691	2.08
326.056	2.09
326.421	2.09
326.785	2.05
327.15	2.05
327.514	1.98
327.879	2.02
328.243	2.02
328.608	2
328.972	2.02
329.337	2.01
329.701	2.03
330.065	2
330.429	2.02
330.794	2.01
331.158	2.01
331.522	1.97
331.886	1.93
332.25	1.83
332.614	1.83
332.978	1.76
333.342	1.85
333.705	1.85
334.069	1.82
334.433	1.79
334.797	1.84
335.16	1.81
335.524	1.83
335.887	1.89
336.251	1.9
336.614	1.92
336.978	1.95
337.341	1.94
337.705	1.93
338.068	1.91
338.431	1.92
338.794	1.86
339.158	1.84
339.521	1.81
339.884	1.72
340.247	1.72
340.61	1.78
340.973	1.77
341.336	1.75
341.699	1.7
342.062	1.77
342.424	1.74
342.787	1.72
343.15	1.7
343.512	1.71
343.875	1.66
344.238	1.68
344.6	1.59
344.963	1.52
345.325	1.46
345.688	1.41
346.05	1.35
346.412	1.38
346.775	1.4
347.137	1.39
347.499	1.37
347.861	1.4
348.223	1.44
348.585	1.45
348.947	1.5
349.309	1.46
349.671	1.45
350.033	1.45
350.395	1.48
350.757	1.46
351.118	1.38
351.48	1.43
351.842	1.49
352.203	1.52
352.565	1.48
352.927	1.54
353.288	1.53
353.65	1.56
354.011	1.6
354.372	1.69
354.734	1.74
355.095	1.74
355.456	1.71
355.817	1.66
356.179	1.67
356.54	1.67
356.901	1.65
357.262	1.62
357.623	1.61
357.984	1.62
358.345	1.67
358.705	1.61
359.066	1.59
359.427	1.59
359.788	1.6
360.148	1.66
360.509	1.63
360.87	1.63
361.23	1.59
361.591	1.64
361.951	1.55
362.312	1.6
362.672	1.62
363.032	1.59
363.393	1.56
363.753	1.47
364.113	1.45
364.473	1.48
364.833	1.57
365.193	1.55
365.553	1.54
365.913	1.52
366.273	1.48
366.633	1.49
366.993	1.45
367.353	1.34
367.713	1.38
368.072	1.33
368.432	1.38
368.792	1.33
369.151	1.27
369.511	1.27
369.87	1.23
370.23	1.29
370.589	1.31
370.949	1.33
371.308	1.3
371.667	1.27
372.027	1.26
372.386	1.26
372.745	1.3
373.104	1.33
373.463	1.31
373.822	1.24
374.181	1.22
374.54	1.24
374.899	1.29
375.258	1.29
375.617	1.3
375.975	1.31
376.334	1.37
376.693	1.4
377.052	1.48
377.41	1.41
377.769	1.43
378.127	1.43
378.486	1.4
378.844	1.39
379.202	1.37
379.561	1.38
379.919	1.43
380.277	1.36
380.636	1.39
380.994	1.37
381.352	1.36
381.71	1.36
382.068	1.39
382.426	1.39
382.784	1.38
383.142	1.41
383.5	1.41
383.857	1.41
384.215	1.42
384.573	1.39
384.931	1.38
385.288	1.3
385.646	1.25
386.003	1.23
386.361	1.21
386.718	1.22
387.076	1.24
387.433	1.2
387.791	1.24
388.148	1.21
388.505	1.16
388.862	1.12
389.22	1.2
389.577	1.24
389.934	1.27
390.291	1.31
390.648	1.34
391.005	1.3
391.362	1.19
391.718	1.27
392.075	1.18
392.432	1.21
392.789	1.18
393.145	1.22
393.502	1.21
393.859	1.23
394.215	1.34
394.572	1.36
394.928	1.34
395.285	1.39
395.641	1.37
395.997	1.42
396.354	1.47
396.71	1.5
397.066	1.52
397.422	1.57
397.778	1.57
398.134	1.55
398.491	1.48
398.846	1.47
399.202	1.49
399.558	1.47
399.914	1.51
400.27	1.55
400.626	1.46
400.981	1.58
401.337	1.55
401.693	1.57
402.048	1.52
402.404	1.58
402.759	1.65
403.115	1.62
403.47	1.62
403.826	1.67
404.181	1.68
404.536	1.75
404.892	1.66
405.247	1.64
405.602	1.58
405.957	1.55
406.312	1.52
406.667	1.52
407.022	1.51
407.377	1.51
407.732	1.55
408.087	1.48
408.442	1.49
408.796	1.46
409.151	1.52
409.506	1.58
409.86	1.54
410.215	1.58
410.57	1.57
410.924	1.66
411.279	1.63
411.633	1.57
411.987	1.59
412.342	1.63
412.696	1.66
413.05	1.64
413.404	1.67
413.758	1.74
414.113	1.85
414.467	1.89
414.821	1.93
415.175	1.95
415.529	1.9
415.882	1.88
416.236	1.91
416.59	1.9
416.944	1.95
417.298	1.97
417.651	1.97
418.005	2.07
418.358	2.04
418.712	2.03
419.065	1.95
419.419	1.96
419.772	1.89
420.126	1.97
420.479	2.02
420.832	1.96
421.185	1.97
421.539	1.91
421.892	1.95
422.245	1.93
422.598	1.93
422.951	1.89
423.304	1.85
423.657	1.8
424.01	1.87
424.363	1.93
424.715	2.03
425.068	2.03
425.421	2.02
425.773	1.97
426.126	2.09
426.479	2.07
426.831	1.98
427.184	1.96
427.536	2.05
427.889	2.09
428.241	2.13
428.593	2.15
428.945	2.14
429.298	2.19
429.65	2.24
430.002	2.23
430.354	2.35
430.706	2.42
431.058	2.47
431.41	2.42
431.762	2.37
432.114	2.43
432.466	2.48
432.817	2.47
433.169	2.53
433.521	2.54
433.872	2.62
434.224	2.7
434.576	2.74
434.927	2.64
435.279	2.61
435.63	2.68
435.981	2.79
436.333	2.82
436.684	2.87
437.035	2.86
437.387	2.92
437.738	2.98
438.089	2.98
438.44	3.05
438.791	3.07
439.142	3.04
439.493	2.96
439.844	2.95
440.195	3
440.545	3.11
440.896	3.15
441.247	3.18
441.598	3.17
441.948	3.17
442.299	3.19
442.649	3.2
443	3.11
443.35	3.14
443.701	3.23
444.051	3.31
444.401	3.28
444.752	3.3
445.102	3.22
445.452	3.25
445.802	3.27
446.152	3.26
446.502	3.25
446.852	3.22
447.202	3.23
447.552	3.18
447.902	3.19
448.252	3.14
448.602	3.5
448.952	3.53
449.301	3.5
449.651	3.51
450.001	3.53
450.35	3.57
450.7	3.56
451.049	3.58
451.399	3.63
451.748	3.7
452.097	3.85
452.447	3.83
452.796	3.89
453.145	4.02
453.494	3.98
453.843	4.11
454.193	4.15
454.542	4.11
454.891	4.19
455.239	4.16
455.588	4.2
455.937	4.15
456.286	4.29
456.635	4.23
456.984	4.43
457.332	4.14
457.681	4.19
458.03	4.3
458.378	4.29
458.727	4.25
459.075	4.24
459.423	4.34
459.772	4.36
460.12	4.26
460.468	4.39
460.817	4.38
461.165	4.41
461.513	4.42
461.861	4.43
462.209	4.55
462.557	4.61
462.905	4.54
463.253	4.64
463.601	4.68
463.949	4.72
464.297	4.79
464.644	4.93
464.992	4.95
465.34	5.03
465.687	5.04
466.035	4.96
466.383	4.95
466.73	4.84
467.078	4.87
467.425	4.88
467.772	4.94
468.12	4.95
468.467	4.92
468.814	5.03
469.161	4.98
469.508	5.03
469.856	5.03
470.203	4.96
470.55	4.89
470.897	4.86
471.243	4.76
471.59	4.85
471.937	4.81
472.284	4.76
472.631	4.68
472.977	4.6
473.324	4.5
473.671	4.38
474.017	4.31
474.364	4.25
474.71	4.28
475.057	4.29
475.403	4.4
475.749	4.45
476.096	4.51
476.442	4.48
476.788	4.56
477.134	4.6
477.48	4.58
477.826	4.53
478.172	4.43
478.518	4.48
478.864	4.47
479.21	4.56
479.556	4.53
479.902	4.56
480.248	4.54
480.593	4.59
480.939	4.53
481.285	4.61
481.63	4.68
481.976	4.74
482.321	4.8
482.667	4.89
483.012	4.87
483.357	4.95
483.703	4.99
484.048	5.11
484.393	5.21
484.738	5.25
485.084	5.24
485.429	5.23
485.774	5.25
486.119	5.33
486.464	5.51
486.808	5.65
487.153	5.68
487.498	5.87
487.843	5.88
488.188	6.08
488.532	6.29
488.877	6.43
489.222	6.65
489.566	6.91
489.911	7.15
490.255	7.3
490.6	7.54
490.944	7.76
491.288	7.99
491.633	8.37
491.977	8.58
492.321	8.9
492.665	9.11
493.009	9.33
493.353	9.68
493.697	10.08
494.041	10.42
494.385	10.77
494.729	11.08
495.073	11.39
495.417	11.71
495.76	12.08
496.104	12.42
496.448	12.86
496.791	13.25
497.135	13.62
497.479	14.11
497.822	14.53
498.165	14.95
498.509	15.42
498.852	15.97
499.196	16.52
499.539	17.08
499.882	17.56
500.225	18.1
500.568	18.63
500.911	19.05
501.254	19.57
501.597	20.11
501.94	20.64
502.283	21.16
502.626	21.73
502.969	22.29
503.312	22.83
503.654	23.4
503.997	23.99
504.34	24.63
504.682	25.13
505.025	25.68
505.367	26.28
505.71	26.77
506.052	27.26
506.395	27.85
506.737	28.47
507.079	29.07
507.421	29.66
507.764	30.12
508.106	30.62
508.448	31.22
508.79	31.63
509.132	32.18
509.474	32.72
509.816	33.16
510.158	33.71
510.499	34.23
510.841	34.67
511.183	35.17
511.525	35.55
511.866	36.12
512.208	36.5
512.549	36.97
512.891	37.47
513.232	38.06
513.574	38.64
513.915	38.97
514.256	39.46
514.598	39.96
514.939	40.3
515.28	40.65
515.621	41
515.962	41.32
516.303	41.83
516.644	42.14
516.985	42.41
517.326	42.82
517.667	43.2
518.008	43.58
518.349	43.97
518.69	44.33
519.03	44.67
519.371	45.1
519.712	45.31
520.052	45.75
520.393	45.89
520.733	46.2
521.074	46.45
521.414	46.77
521.754	47.1
522.095	47.24
522.435	47.55
522.775	47.8
523.115	48.03
523.455	48.25
523.795	48.41
524.135	48.61
524.475	48.81
524.815	48.97
525.155	49.35
525.495	49.57
525.835	49.75
526.175	49.97
526.514	50.17
526.854	50.31
527.194	50.37
527.533	50.49
527.873	50.43
528.212	50.61
528.552	50.74
528.891	51.01
529.23	51.21
529.57	51.37
529.909	51.54
530.248	51.44
530.587	51.72
530.927	51.87
531.266	51.9
531.605	51.94
531.944	52.07
532.283	52.22
532.621	52.21
532.96	52.29
533.299	52.31
533.638	52.42
533.977	52.54
534.315	52.62
534.654	52.62
534.992	52.67
535.331	52.65
535.67	52.8
536.008	52.88
536.346	53.24
536.685	53.2
537.023	53.32
537.361	53.35
537.7	53.35
538.038	53.24
538.376	53.12
538.714	53.35
539.052	53.3
539.39	53.32
539.728	53.45
540.066	53.56
540.404	53.58
540.741	53.57
541.079	53.73
541.417	53.86
541.755	53.93
542.092	53.83
542.43	53.78
542.767	54.02
543.105	53.95
543.442	53.98
543.78	54.16
544.117	54.14
544.454	54.2
544.792	54.08
545.129	54.25
545.466	54.22
545.803	54.24
546.14	54.29
546.477	54.32
546.814	54.31
547.151	54.1
547.488	54.17
547.825	54.32
548.162	54.36
548.499	54.36
548.835	54.46
549.172	54.7
549.509	54.81
549.845	54.79
550.182	54.8
550.518	54.84
550.855	54.91
551.191	54.65
551.528	54.7
551.864	54.79
552.2	54.7
552.537	54.86
552.873	54.9
553.209	55.11
553.545	55.16
553.881	55.15
554.217	55.2
554.553	55.27
554.889	55.54
555.225	55.56
555.561	55.52
555.896	55.55
556.232	55.33
556.568	55.38
556.903	55.36
557.239	55.42
557.575	55.43
557.91	55.38
558.245	55.41
558.581	55.43
558.916	55.39
559.252	55.49
559.587	55.66
559.922	55.65
560.257	55.57
560.592	55.73
560.928	55.75
561.263	55.77
561.598	55.65
561.933	55.66
562.267	55.67
562.602	55.81
562.937	55.91
563.272	55.9
563.607	56.07
563.941	56.55
564.276	56.56
564.611	56.74
564.945	56.8
565.28	57.07
565.614	57.03
565.949	57
566.283	57.01
566.617	57
566.951	57.07
567.286	57.28
567.62	57.25
567.954	57.31
568.288	57.39
568.622	57.38
568.956	57.47
569.29	57.45
569.624	57.29
569.958	57.34
570.292	57.4
570.626	57.47
570.959	57.52
571.293	57.5
571.627	57.6
571.96	57.49
572.294	57.46
572.627	57.38
572.961	57.31
573.294	57.34
573.627	57.27
573.961	57.25
574.294	57.29
574.627	57.38
574.961	57.57
575.294	57.61
575.627	57.68
575.96	57.62
576.293	57.54
576.626	57.51
576.959	57.57
577.292	57.53
577.624	57.52
577.957	57.63
578.29	57.67
578.623	57.64
578.955	57.67
579.288	57.63
579.62	57.63
579.953	57.61
580.285	57.64
580.618	57.6
580.95	57.76
581.282	57.85
581.615	57.89
581.947	57.83
582.279	57.89
582.611	57.74
582.943	57.59
583.275	57.47
583.607	57.47
583.939	57.27
584.271	57.32
584.603	57.36
584.935	57.48
585.267	57.53
585.598	57.52
585.93	57.67
586.262	57.76
586.593	57.75
586.925	57.87
587.256	57.79
587.588	57.76
587.919	57.82
588.25	57.77
588.582	57.81
588.913	57.78
589.244	57.64
589.575	57.67
589.907	57.68
590.238	57.66
590.569	57.74
590.9	58.1
591.231	58.26
591.562	58.23
591.892	58.18
592.223	58.26
592.554	58.28
592.885	58.23
593.215	58.2
593.546	58.09
593.877	58.03
594.207	57.89
594.538	57.78
594.868	57.78
595.198	57.56
595.529	57.51
595.859	57.48
596.189	57.56
596.52	57.6
596.85	57.76
597.18	57.74
597.51	57.81
597.84	57.88
598.17	57.79
598.5	57.89
598.83	57.8
599.16	57.76
599.489	57.8
599.819	57.74
600.149	57.7
600.479	57.61
600.808	57.6
601.138	57.68
601.467	57.64
601.797	57.76
602.126	57.79
602.456	57.78
602.785	57.91
603.114	57.86
603.443	58.06
603.773	58.17
604.102	58.2
604.431	58.1
604.76	58
605.089	57.79
605.418	57.84
605.747	57.84
606.076	57.66
606.405	57.67
606.733	57.74
607.062	57.73
607.391	57.55
607.72	57.57
608.048	57.81
608.377	57.86
608.705	58
609.034	57.93
609.362	57.9
609.69	57.92
610.019	57.87
610.347	57.94
610.675	57.93
611.004	57.92
611.332	57.81
611.66	57.72
611.988	57.59
612.316	57.71
612.644	57.63
612.972	57.8
613.3	57.94
613.627	58.04
613.955	58.1
614.283	58.05
614.611	57.92
614.938	57.9
615.266	57.79
615.593	57.85
615.921	57.7
616.248	57.67
616.576	57.58
616.903	57.65
617.23	57.61
617.558	57.65
617.885	57.66
618.212	57.66
618.539	57.69
618.866	57.57
619.193	57.34
619.52	57.38
619.847	57.57
620.174	57.76
620.501	57.56
620.828	57.46
621.155	57.21
621.481	57.17
621.808	56.92
622.135	56.83
622.461	56.87
622.788	57.21
623.114	56.85
623.441	56.62
623.767	56.52
624.093	56.44
624.42	56.11
624.746	56.22
625.072	56.17
625.398	56.69
625.725	56.63
626.051	56.56
626.377	56.53
626.703	56.52
627.029	56.56
627.354	56.71
627.68	56.78
628.006	56.47
628.332	56.41
628.658	56.3
628.983	56.4
629.309	56.63
629.634	56.38
629.96	56.55
630.285	56.84
630.611	56.93
630.936	56.81
631.262	57.6
631.587	58.52
631.912	58.85
632.237	59.07
632.562	59.26
632.887	59.55
633.213	59.32
633.538	58.98
633.863	58.73
634.187	58.81
634.512	58.63
634.837	58.34
635.162	58.25
635.487	57.93
635.811	57.93
636.136	58.55
636.461	58.49
636.785	58.66
637.11	58.9
637.434	58.89
637.758	58.97
638.083	58.32
638.407	57.88
638.731	57.95
639.056	57.44
639.38	57.03
639.704	56.97
640.028	56.86
640.352	56.86
640.676	56.75
641	56.39
641.324	56.58
641.648	56.18
641.972	56.83
642.295	56.54
642.619	56.38
642.943	56.39
643.266	56.3
643.59	56.33
643.913	55.84
644.237	55.4
644.56	55.25
644.884	55.44
645.207	55.22
645.53	55.11
645.854	55.33
646.177	56.04
646.5	56.11
646.823	56.35
647.146	56.61
647.469	56.85
647.792	56.18
648.115	55.96
648.438	55.78
648.761	56.61
649.084	57.3
649.406	57.85
649.729	57.36
650.052	57
650.374	56.67
650.697	56.6
651.019	56.54
651.342	56.43
651.664	56.54
651.987	56.8
652.309	56.79
652.631	56.89
652.953	56.75
653.276	56.63
653.598	56.56
653.92	56.48
654.242	56.48
654.564	56.42
654.886	56.23
655.208	56.07
655.53	55.95
655.851	56.06
656.173	56.21
656.495	56.4
656.816	55.99
657.138	55.46
657.46	53.97
657.781	53.37
658.103	53.11
658.424	53.5
658.746	53.71
659.067	53.83
659.388	54.25
659.709	53.78
660.031	53.12
660.352	52.42
660.673	51.18
660.994	51
661.315	51.88
661.636	52.25
661.957	52.4
662.278	52.29
662.599	52.53
662.919	52.38
663.24	53.73
663.561	53.24
663.881	52.91
664.202	52.89
664.523	51.68
664.843	51.2
665.164	50.78
665.484	51.89
665.804	51.86
666.125	51.75
666.445	52.23
666.765	51.86
667.085	51.61
667.405	51.7
667.726	52.07
668.046	52.33
668.366	52.19
668.686	52.69
669.005	53.24
669.325	52.53
669.645	52.14
669.965	52.29
670.285	52.17
670.604	51.95
670.924	52.27
671.243	52.41
671.563	53.02
671.882	53.05
672.202	52.53
672.521	53.27
672.841	53.62
673.16	53.51
673.479	52.91
673.798	53.39
674.117	53.51
674.437	53.25
674.756	53.82
675.075	53.99
675.394	53.56
675.713	53.54
676.031	53.64
676.35	53.88
676.669	54.07
676.988	53.81
677.306	53.81
677.625	54.03
677.944	53.47
678.262	54.4
678.581	54.52
678.899	54.86
679.218	54.03
679.536	53.74
679.854	53.69
680.172	53.24
680.491	52.34
680.809	52.65
681.127	52.99
681.445	53.56
681.763	53.53
682.081	53.03
682.399	52.57
682.717	52.67
683.035	53.09
683.352	53.45
683.67	53.26
683.988	53.63
684.306	54.11
684.623	54.57
684.941	55.39
685.258	56.05
685.576	56.51
685.893	57.13
686.211	55.77
686.528	56.16
686.845	56.23
687.162	56.25
687.48	56.45
687.797	57.58
688.114	58.02
688.431	58.48
688.748	57.64
689.065	57.38
689.382	57.69
689.699	57.84
690.015	58.13
690.332	59.41
690.649	59.16
690.966	59.14
691.282	59.59
691.599	59.46
691.915	59.31
692.232	59.15
692.548	58.95
692.865	58.48
693.181	58.68
693.497	57.99
693.813	58.5
694.13	59.76
694.446	59.3
694.762	59.29
695.078	58.96
695.394	59.24
695.71	57.68
696.026	58.75
696.342	58.92
696.658	60.35
696.973	61.48
697.289	60.59
697.605	60.77
697.92	61.19
698.236	61.08
698.551	60.92
698.867	61.22
699.182	61.88
699.498	62.64
699.813	62.17
700.128	63.56
700.444	63.04
700.759	62.69
701.074	61.57
701.389	62.58
701.704	61.81
702.019	60.86
702.334	61.24
702.649	61.33
702.964	62.02
703.279	61.87
703.594	63.27
703.908	62.03
704.223	62.04
704.538	61.69
704.852	60.58
705.167	59.42
705.481	58.97
705.796	58.76
706.11	58.52
706.425	57.9
706.739	57.96
707.053	57.53
707.368	58.22
707.682	58.66
707.996	57.08
708.31	57.42
708.624	57.63
708.938	58.18
709.252	57.36
709.566	57.28
709.88	57.85
710.193	57.63
710.507	57.2
710.821	57.87
711.135	56.71
711.448	55.94
711.762	55.63
712.075	55.03
712.389	55.18
712.702	55.06
713.015	56.34
713.329	55.71
713.642	56.26
713.955	56.24
714.269	56.29
714.582	56.35
714.895	55.12
715.208	54.92
715.521	54.51
715.834	56.45
716.147	57.3
716.459	56.75
716.772	56.77
717.085	56.5
717.398	57.25
717.71	56.76
718.023	56.38
718.336	56.36
718.648	55.03
718.961	54.92
719.273	55.08
719.585	55.53
719.898	58.42
720.21	57.95
720.522	58.65
720.834	59.29
721.147	61.04
721.459	61.26
721.771	60.56
722.083	62.3
722.395	62.98
722.707	63.18
723.019	60.94
723.33	59.88
723.642	58.71
723.954	57.67
724.265	57.41
724.577	55.54
724.889	56
725.2	55.03
725.512	54.51
725.823	52.93
726.135	52.56
726.446	53.62
726.757	54.91
727.068	54.74
727.38	55.63
727.691	54.54
728.002	55.67
728.313	55.54
728.624	54.9
728.935	53.9
729.246	53
729.557	54.29
729.867	54.14
730.178	52.82
730.489	53.43
730.8	54.72
731.11	56.01
731.421	55.51
731.731	54.87
732.042	54.59
732.352	55.2
732.663	54.42
732.973	54.25
733.283	54.57
733.594	56.69
733.904	57.65
734.214	57.1
734.524	56.72
734.834	58.38
735.144	58.33
735.454	58.44
735.764	57.96
736.074	58.34
736.384	58.67
736.694	60.37
737.003	60.76
737.313	60.11
737.623	60.9
737.932	60.81
738.242	61.43
738.551	60.36
738.861	59.98
739.17	60.75
739.479	61.61
739.789	62.17
740.098	62.65
740.407	64.11
740.716	66.36
741.025	68.14
741.334	65.67
741.643	65.34
741.952	65.77
742.261	65.9
742.57	63.62
742.879	64.98
743.188	63.94
743.497	63.81
743.805	62.54
744.114	62.82
744.422	58.85
744.731	60.71
745.04	60.71
745.348	58.67
745.656	59.31
745.965	58.56
746.273	59.52
746.581	58.99
746.889	57.43
747.198	58.31
747.506	59.68
747.814	61.66
748.122	61.25
748.43	58.42
748.738	56.14
749.046	59.56
749.353	62.61
749.661	62.42
749.969	63.02
750.277	61.92
750.584	60.09
750.892	60.49
751.199	61.04
751.507	61.56
751.814	62.27
752.122	64.41
752.429	63.77
752.736	63.02
753.044	61.4
753.351	60.89
753.658	59.37
753.965	58.93
754.272	60.26
754.579	61.9
754.886	60.87
755.193	60.5
755.5	59.47
755.807	58.63
756.114	58.11
756.42	59.06
756.727	58.34
757.034	56.08
757.34	55.17
757.647	55.89
757.953	54.84
758.26	54.08
758.566	52.66
758.872	51.94
759.179	54.19
759.485	51.54
759.791	52.09
760.097	51.17
760.403	50.59
760.709	51.83
761.015	54.93
761.321	55.36
761.627	59.16
761.933	56.74
762.239	57.52
762.545	56.11
762.851	55.77
763.156	55.43
763.462	56.43
763.767	56.39
764.073	56.64
764.378	56.26
764.684	53.86
764.989	53.32
765.295	53.07
765.6	55.09
765.905	56.37
766.21	54.49
766.515	54.31
766.821	50.76
767.126	53.42
767.431	52.21
767.736	52.54
768.041	48.87
768.345	46.47
768.65	41.85
768.955	39.39
769.26	30.81
769.564	31.81
769.869	27.11
770.174	27.46
770.478	27.89
770.783	23.29
771.087	24.9
771.391	27.61
771.696	29.6
772	35.94
772.304	44.27
772.608	51.08
772.913	59.07
773.217	56.5
773.521	57.89
773.825	61.64
774.129	63.27
774.433	66.28
774.736	60.82
775.04	54.03
775.344	55.8
775.648	65.63
775.951	66.89
776.255	72.2
776.559	72.43
776.862	79.89
777.166	81.28
777.469	84.47
777.772	79.04
778.076	76.15
778.379	83.99
778.682	78.48
778.985	71.79
779.289	62.77
779.592	61.47
779.895	55.97
780.198	58.24
780.501	51.79
780.804	59.12
781.106	53.18
781.409	49.2
781.712	45.56
782.015	37.71
782.317	39.57
782.62	50.36
782.923	52.83
783.225	49.57
783.527	54.54
783.83	45.04
784.132	44.75
784.435	40.16
784.737	34.45
785.039	39.14
785.341	42.13
785.643	35.86
785.945	21.21
786.248	30.19
786.55	43.42
786.851	50.3
787.153	39.7
787.455	33.89
787.757	41.09
788.059	39.99
788.36	27.93
788.662	32.91
788.964	44.79
789.265	42.26
789.567	51.46
789.868	57.5
790.17	49.63
790.471	37.99
790.772	35.99
791.074	13.83
791.375	16.35
791.676	28.51
791.977	18.94
792.278	31.33
792.579	20.85
792.88	8.83
793.181	28.33
793.482	26.4
793.783	14.91
794.083	4.26
794.384	9.9
794.685	15.68
794.986	32.03
795.286	8.29
795.587	13.05
795.887	-0.85
796.188	15.61
796.488	11.46
796.788	6.79
797.089	9.64
797.389	12
797.689	16.08
797.989	10.8
798.289	1.22
798.589	15.26
798.889	9.02
799.189	2.32
799.489	25.13
799.789	19.56
800.089	19.23
800.389	38.81
800.688	20.27
800.988	27.86
801.288	34.91
801.587	30.12
801.887	10.92
802.186	-1.38
802.486	-1.66
802.785	-17.57
803.085	-42.93
803.384	-18.17
803.683	-35.27
803.982	-33.7
804.281	-38.5
804.58	-45.05
804.879	-215.66
805.178	-324.36
805.477	-115.19
805.776	-111.57
806.075	-156.68
806.374	-57.86
806.673	-65.65
806.971	-200.35
807.27	-1897.04
807.569	-2704.6
807.867	-2178.99
808.166	857.74
808.464	738.38
808.763	288.88
809.061	214.87
809.359	204.85
809.658	168.62
809.956	99.34
810.254	36.96
810.552	47.96
810.85	67.02
811.148	95.85
811.446	117.04
811.744	135.46
812.042	125.24
812.34	88.06
812.638	62.47
812.935	68.25
813.233	48.71
813.531	89.01
813.828	107.83
814.126	93.66
814.423	95.91
814.721	27.27
815.018	3.95
815.316	41.38
815.613	87.84
815.91	100.56
816.207	91.55
816.504	89.87
816.802	140.91
817.099	106.91
817.396	204.62
817.693	311.54
817.99	367.72
818.286	205.81
818.583	-56.48
818.88	-34.65
819.177	-16.69
819.473	-130.02
819.77	-94.68
820.067	-246.27
820.363	-415.07
820.66	69.4
820.956	-316.61
821.252	2664.1
821.549	-1027.01
821.845	-1162.81
822.141	468.86
822.437	104.12
822.734	359.81
823.03	-662.13
823.326	-239.5
823.622	-273.78
823.918	-3057.89
824.213	-597.51
824.509	-619.19
824.805	-222.6
825.101	-89.41
825.397	-42.69
825.692	-12.23
825.988	58.97
826.283	84.76
826.579	90.92
826.874	138.83
827.17	1802.56
827.465	60.47
827.76	53.26
828.056	61.73
828.351	199.6
828.646	96.07
828.941	241.06
829.236	268.37
829.531	177.46
829.826	149.4
830.121	158.34
830.416	187.78
830.711	195.34
831.006	201.85
831.3	240.52
831.595	185.02
831.89	170.28
832.184	137.8
832.479	143.78
832.773	158.07
833.068	138.89
833.362	135.93
833.656	132.68
833.951	108.63
834.245	123.73
834.539	152.27
834.833	164.81
835.127	157.51
835.421	142.18
835.715	124.2
836.009	132.75
836.303	112.72
836.597	90.02
836.891	93.29
837.185	93.79
837.478	87.38
837.772	79.43
838.066	82.83
838.359	80.34
838.653	77.37
838.946	80.9
839.24	95.93
839.533	102.37
839.826	95.61
840.119	113.56
840.413	69.03
840.706	129.59
840.999	98.81
841.292	132.99
841.585	129.74
841.878	113.11
842.171	107.83
842.464	151.69
842.757	167.47
843.049	168.48
843.342	147.27
843.635	150.53
843.927	213.46
844.22	178.41
844.513	245.04
844.805	417.22
845.098	478.35
845.39	542.35
845.682	450.11
845.975	676.6
846.267	195.84
846.559	178.16
846.851	154.84
847.143	129.95
847.435	151.19
847.727	170.69
848.019	201.47
848.311	435.6
848.603	865.67
848.895	-313.46
849.186	-14.7
849.478	-2300
849.77	102.43
850.061	96.57
850.353	-296.64
850.645	-29.55
850.936	-59.06
851.227	-9385.71
851.519	-82.64
851.81	-16.16
852.101	57.89
852.393	383.87
852.684	-297.35
852.975	-84.62
853.266	19.43
853.557	12.87
853.848	39.23
854.139	55.81
854.43	29.93
854.72	50.28
855.011	38.87
855.302	85.13
855.593	45.09
855.883	98.55
856.174	23.98
856.464	-149.18
856.755	554.05
857.045	428.91
857.336	372.58
857.626	-442.53
857.916	159.5
858.206	-2021.74
858.497	7.81
858.787	-63.55
859.077	-218.24
859.367	-45.39
859.657	-78.13
859.947	-230.54
860.237	164.23
860.527	43.46
860.816	57.71
861.106	26.47
861.396	-12.11
861.685	-98.9
861.975	-190.78
862.265	-543.52
862.554	-270.47
862.844	1407.1
863.133	954.75
863.422	880.57
863.712	239.75
864.001	116.75
864.29	134.12
864.579	122.37
864.868	94.42
865.157	104.82
865.446	192.61
865.735	255.27
866.024	213.53
866.313	174.24
866.602	257.14
866.891	242.08
867.179	127.81
867.468	91.69
