Data from T1_Reflection__84__23-25-33-142.txt Node

Date: Wed Jun 02 23:25:33 CEST 2021
User: mabdelazizm
Spectrometer: FLMS18565
Trigger mode: 0
Integration Time (sec): 2.000000E0
Scans to average: 1
Electric dark correction enabled: true
Nonlinearity correction enabled: false
Boxcar width: 12
XAxis mode: Wavelengths
Number of Pixels in Spectrum: 2048
>>>>>Begin Spectral Data<<<<<
179.071	-256.81
179.452	-454.94
179.833	-285.8
180.214	-318.18
180.595	-2453.27
180.977	-911.38
181.358	-464.99
181.739	-911.76
182.12	-322.27
182.501	-359.14
182.882	-139.2
183.262	-239.05
183.643	-113.23
184.024	-50.22
184.405	-26.87
184.786	-8.08
185.166	-7.61
185.547	-12
185.927	-8.18
186.308	-5.86
186.689	4.21
187.069	7.32
187.449	7.68
187.83	5.48
188.21	8.83
188.59	8.01
188.971	7.56
189.351	5.08
189.731	10.18
190.111	10.1
190.491	9.9
190.871	7.18
191.251	8.03
191.631	8.81
192.011	10.25
192.391	9.21
192.771	11.09
193.151	12.04
193.531	14
193.91	14.73
194.29	13.67
194.67	12.01
195.049	13.01
195.429	13.38
195.808	13.09
196.188	12.72
196.567	13.41
196.946	12.72
197.326	13.11
197.705	12.1
198.084	10.88
198.464	11.62
198.843	13.07
199.222	11.65
199.601	10.58
199.98	10.27
200.359	11.71
200.738	11.9
201.117	10.81
201.496	10.34
201.875	9.56
202.254	9.49
202.632	9.14
203.011	7.97
203.39	7
203.768	8.1
204.147	10.15
204.525	9.45
204.904	8.83
205.282	8.56
205.661	7.57
206.039	8.07
206.418	8.69
206.796	9.19
207.174	10.02
207.552	11.68
207.931	11.28
208.309	11.77
208.687	11.26
209.065	12.15
209.443	11.11
209.821	10.42
210.199	10.34
210.577	9.86
210.954	9.98
211.332	10.24
211.71	10.33
212.088	10.52
212.465	10.47
212.843	10.79
213.221	10.49
213.598	10.14
213.976	10.3
214.353	10.16
214.731	10.4
215.108	10.2
215.485	8.04
215.863	7.71
216.24	6.91
216.617	6.23
216.994	5.72
217.371	5.92
217.749	4.61
218.126	4.98
218.503	4.48
218.88	4.44
219.256	4.6
219.633	4
220.01	4.75
220.387	5
220.764	4.85
221.14	4.3
221.517	4.27
221.894	4.29
222.27	5.16
222.647	4.9
223.023	3.82
223.4	3.95
223.776	4.42
224.153	4.34
224.529	4.5
224.905	5.62
225.282	5.51
225.658	5.42
226.034	5.24
226.41	5.07
226.786	4.94
227.162	5.06
227.538	5.26
227.914	5.13
228.29	4.96
228.666	4.68
229.042	4.72
229.418	4.51
229.793	4.14
230.169	4.24
230.545	4.24
230.92	4.19
231.296	4.08
231.672	3.99
232.047	3.89
232.422	3.98
232.798	3.8
233.173	3.53
233.549	3.44
233.924	3.26
234.299	2.89
234.674	2.99
235.05	2.89
235.425	2.99
235.8	2.95
236.175	2.88
236.55	2.8
236.925	2.62
237.3	2.56
237.675	2.59
238.049	2.69
238.424	2.62
238.799	2.6
239.174	2.68
239.548	2.53
239.923	2.52
240.297	2.4
240.672	2.39
241.046	2.16
241.421	2.2
241.795	2.15
242.17	2.15
242.544	2.09
242.918	2.13
243.293	2.13
243.667	2.18
244.041	2.11
244.415	2.11
244.789	2.03
245.163	2.02
245.537	2.05
245.911	2.05
246.285	2.05
246.659	2.05
247.033	2.07
247.406	2.07
247.78	2.03
248.154	1.96
248.528	1.92
248.901	1.98
249.275	1.98
249.648	2.05
250.022	2.06
250.395	2.11
250.769	2.06
251.142	2.14
251.515	2.12
251.888	2.14
252.262	2.09
252.635	2.05
253.008	2.02
253.381	1.99
253.754	1.99
254.127	2.02
254.5	1.96
254.873	1.86
255.246	1.87
255.619	1.87
255.992	1.91
256.364	1.94
256.737	1.91
257.11	1.92
257.483	1.94
257.855	1.89
258.228	1.82
258.6	1.8
258.973	1.79
259.345	1.83
259.718	1.79
260.09	1.79
260.462	1.73
260.834	1.73
261.207	1.74
261.579	1.76
261.951	1.79
262.323	1.76
262.695	1.71
263.067	1.75
263.439	1.69
263.811	1.75
264.183	1.82
264.555	1.76
264.927	1.75
265.298	1.74
265.67	1.69
266.042	1.62
266.413	1.61
266.785	1.59
267.156	1.59
267.528	1.59
267.899	1.55
268.271	1.56
268.642	1.51
269.013	1.51
269.385	1.53
269.756	1.59
270.127	1.59
270.498	1.57
270.87	1.52
271.241	1.5
271.612	1.54
271.983	1.58
272.354	1.57
272.724	1.61
273.095	1.67
273.466	1.65
273.837	1.66
274.208	1.62
274.578	1.6
274.949	1.65
275.32	1.69
275.69	1.67
276.061	1.66
276.431	1.69
276.802	1.66
277.172	1.69
277.542	1.65
277.913	1.62
278.283	1.59
278.653	1.53
279.023	1.49
279.394	1.48
279.764	1.5
280.134	1.5
280.504	1.52
280.874	1.49
281.244	1.42
281.614	1.36
281.983	1.38
282.353	1.33
282.723	1.37
283.093	1.44
283.462	1.45
283.832	1.43
284.202	1.39
284.571	1.36
284.941	1.34
285.31	1.35
285.68	1.36
286.049	1.38
286.418	1.37
286.788	1.45
287.157	1.44
287.526	1.47
287.895	1.47
288.264	1.5
288.633	1.46
289.002	1.47
289.371	1.44
289.74	1.38
290.109	1.35
290.478	1.41
290.847	1.44
291.216	1.38
291.585	1.3
291.953	1.24
292.322	1.19
292.691	1.19
293.059	1.19
293.428	1.12
293.796	1.14
294.165	1.13
294.533	1.09
294.901	1.09
295.27	1.12
295.638	1.08
296.006	1
296.374	1.03
296.743	1
297.111	1.04
297.479	0.98
297.847	1.01
298.215	0.95
298.583	1
298.95	1.06
299.318	1.09
299.686	1.05
300.054	1.06
300.422	1.09
300.789	1.18
301.157	1.17
301.525	1.13
301.892	1.15
302.26	1.17
302.627	1.22
302.994	1.22
303.362	1.21
303.729	1.22
304.097	1.19
304.464	1.16
304.831	1.16
305.198	1.11
305.565	1.15
305.932	1.16
306.299	1.17
306.666	1.18
307.033	1.17
307.4	1.24
307.767	1.24
308.134	1.2
308.501	1.2
308.867	1.15
309.234	1.14
309.601	1.13
309.967	1.14
310.334	1.17
310.701	1.15
311.067	1.12
311.433	1.09
311.8	1.1
312.166	1.12
312.533	1.21
312.899	1.2
313.265	1.21
313.631	1.23
313.997	1.27
314.363	1.28
314.729	1.27
315.096	1.24
315.461	1.21
315.827	1.2
316.193	1.2
316.559	1.15
316.925	1.17
317.291	1.18
317.656	1.22
318.022	1.3
318.388	1.24
318.753	1.21
319.119	1.1
319.484	1.07
319.85	1.1
320.215	1.11
320.581	1.09
320.946	1.05
321.311	1.05
321.676	0.98
322.042	1.03
322.407	1.03
322.772	1.03
323.137	1.07
323.502	1.11
323.867	1.09
324.232	1.14
324.597	1.14
324.962	1.19
325.327	1.2
325.691	1.23
326.056	1.23
326.421	1.24
326.785	1.17
327.15	1.14
327.514	1.15
327.879	1.15
328.243	1.22
328.608	1.27
328.972	1.31
329.337	1.38
329.701	1.43
330.065	1.47
330.429	1.46
330.794	1.47
331.158	1.45
331.522	1.39
331.886	1.41
332.25	1.28
332.614	1.28
332.978	1.26
333.342	1.26
333.705	1.24
334.069	1.19
334.433	1.2
334.797	1.18
335.16	1.16
335.524	1.13
335.887	1.17
336.251	1.18
336.614	1.19
336.978	1.23
337.341	1.21
337.705	1.22
338.068	1.28
338.431	1.26
338.794	1.23
339.158	1.17
339.521	1.1
339.884	1.05
340.247	1.05
340.61	1.06
340.973	1.06
341.336	1.14
341.699	1.12
342.062	1.12
342.424	1.06
342.787	1.02
343.15	1.04
343.512	0.96
343.875	0.92
344.238	0.9
344.6	0.94
344.963	0.95
345.325	0.91
345.688	0.92
346.05	0.89
346.412	0.87
346.775	0.86
347.137	0.77
347.499	0.72
347.861	0.73
348.223	0.74
348.585	0.81
348.947	0.85
349.309	0.84
349.671	0.82
350.033	0.79
350.395	0.74
350.757	0.66
351.118	0.67
351.48	0.7
351.842	0.79
352.203	0.74
352.565	0.83
352.927	0.89
353.288	0.92
353.65	0.81
354.011	0.76
354.372	0.81
354.734	0.79
355.095	0.79
355.456	0.79
355.817	0.72
356.179	0.71
356.54	0.7
356.901	0.67
357.262	0.67
357.623	0.59
357.984	0.59
358.345	0.63
358.705	0.63
359.066	0.6
359.427	0.64
359.788	0.74
360.148	0.74
360.509	0.67
360.87	0.66
361.23	0.64
361.591	0.67
361.951	0.68
362.312	0.66
362.672	0.69
363.032	0.68
363.393	0.67
363.753	0.68
364.113	0.59
364.473	0.58
364.833	0.65
365.193	0.64
365.553	0.68
365.913	0.64
366.273	0.65
366.633	0.77
366.993	0.73
367.353	0.64
367.713	0.66
368.072	0.66
368.432	0.62
368.792	0.62
369.151	0.56
369.511	0.6
369.87	0.57
370.23	0.65
370.589	0.55
370.949	0.52
371.308	0.46
371.667	0.46
372.027	0.47
372.386	0.51
372.745	0.51
373.104	0.55
373.463	0.57
373.822	0.53
374.181	0.6
374.54	0.56
374.899	0.56
375.258	0.46
375.617	0.41
375.975	0.47
376.334	0.58
376.693	0.64
377.052	0.67
377.41	0.7
377.769	0.66
378.127	0.67
378.486	0.71
378.844	0.74
379.202	0.69
379.561	0.72
379.919	0.75
380.277	0.85
380.636	0.92
380.994	0.97
381.352	0.97
381.71	0.98
382.068	1.05
382.426	1.1
382.784	1.11
383.142	1.18
383.5	1.13
383.857	1.21
384.215	1.26
384.573	1.17
384.931	1.1
385.288	1.04
385.646	1.01
386.003	1.05
386.361	1.06
386.718	1.08
387.076	1.15
387.433	1.14
387.791	1.15
388.148	1.22
388.505	1.22
388.862	1.18
389.22	1.27
389.577	1.3
389.934	1.32
390.291	1.34
390.648	1.35
391.005	1.41
391.362	1.46
391.718	1.46
392.075	1.36
392.432	1.42
392.789	1.51
393.145	1.68
393.502	1.79
393.859	1.93
394.215	2.08
394.572	2.13
394.928	2.16
395.285	2.26
395.641	2.36
395.997	2.44
396.354	2.63
396.71	2.77
397.066	2.84
397.422	2.97
397.778	3.15
398.134	3.1
398.491	3.27
398.846	3.43
399.202	3.61
399.558	3.79
399.914	3.83
400.27	3.93
400.626	4.12
400.981	4.29
401.337	4.47
401.693	4.62
402.048	4.71
402.404	4.98
402.759	5.11
403.115	5.18
403.47	5.41
403.826	5.7
404.181	5.91
404.536	6.07
404.892	6.27
405.247	6.36
405.602	6.52
405.957	6.77
406.312	7.05
406.667	7.22
407.022	7.58
407.377	7.65
407.732	7.9
408.087	8.02
408.442	8.25
408.796	8.51
409.151	8.73
409.506	9.08
409.86	9.32
410.215	9.65
410.57	9.88
410.924	10.23
411.279	10.5
411.633	10.88
411.987	11.31
412.342	11.56
412.696	11.75
413.05	12.12
413.404	12.41
413.758	12.94
414.113	13.31
414.467	13.57
414.821	13.8
415.175	14.08
415.529	14.4
415.882	14.67
416.236	15.13
416.59	15.41
416.944	15.75
417.298	16.14
417.651	16.44
418.005	16.83
418.358	17.09
418.712	17.45
419.065	17.84
419.419	18.18
419.772	18.4
420.126	18.78
420.479	19.11
420.832	19.32
421.185	19.55
421.539	19.91
421.892	20.18
422.245	20.48
422.598	20.68
422.951	21.05
423.304	21.52
423.657	21.9
424.01	22.24
424.363	22.66
424.715	23.08
425.068	23.3
425.421	23.68
425.773	24.07
426.126	24.36
426.479	24.77
426.831	25.01
427.184	25.27
427.536	25.56
427.889	25.71
428.241	26.09
428.593	26.43
428.945	26.63
429.298	26.91
429.65	27.26
430.002	27.62
430.354	27.94
430.706	28.14
431.058	28.41
431.41	28.61
431.762	28.82
432.114	28.98
432.466	29.19
432.817	29.37
433.169	29.56
433.521	29.63
433.872	29.89
434.224	29.94
434.576	29.97
434.927	30.06
435.279	30.09
435.63	30.21
435.981	30.31
436.333	30.47
436.684	30.58
437.035	30.55
437.387	30.57
437.738	30.49
438.089	30.38
438.44	30.38
438.791	30.37
439.142	30.31
439.493	30.38
439.844	30.32
440.195	30.35
440.545	30.33
440.896	30.36
441.247	30.54
441.598	30.57
441.948	30.57
442.299	30.63
442.649	30.7
443	30.8
443.35	30.91
443.701	31.01
444.051	31.13
444.401	31.13
444.752	31.15
445.102	31.16
445.452	31.2
445.802	31.24
446.152	31.32
446.502	31.49
446.852	31.65
447.202	31.63
447.552	31.71
447.902	31.8
448.252	31.8
448.602	33.41
448.952	33.57
449.301	33.7
449.651	33.71
450.001	33.69
450.35	33.81
450.7	34.1
451.049	34.2
451.399	34.28
451.748	34.4
452.097	34.39
452.447	34.49
452.796	34.45
453.145	34.79
453.494	34.91
453.843	34.99
454.193	35.15
454.542	35.34
454.891	35.44
455.239	35.54
455.588	35.71
455.937	36.06
456.286	36.26
456.635	36.42
456.984	36.54
457.332	35.03
457.681	35
458.03	35
458.378	35.11
458.727	35.17
459.075	35.22
459.423	35
459.772	35.14
460.12	35.12
460.468	35.14
460.817	35.47
461.165	35.53
461.513	35.69
461.861	35.7
462.209	35.7
462.557	35.66
462.905	35.53
463.253	35.51
463.601	35.4
463.949	35.37
464.297	35.26
464.644	35.04
464.992	34.91
465.34	34.85
465.687	34.81
466.035	34.6
466.383	34.56
466.73	34.59
467.078	34.57
467.425	34.42
467.772	34.23
468.12	34.34
468.467	34.12
468.814	34.07
469.161	33.92
469.508	33.59
469.856	33.34
470.203	33.23
470.55	32.84
470.897	32.67
471.243	32.6
471.59	32.52
471.937	32.25
472.284	32.19
472.631	31.93
472.977	31.9
473.324	31.82
473.671	31.74
474.017	31.65
474.364	31.53
474.71	31.45
475.057	31.3
475.403	31.06
475.749	30.86
476.096	30.83
476.442	30.85
476.788	30.68
477.134	30.65
477.48	30.49
477.826	30.41
478.172	30.39
478.518	30.37
478.864	30.4
479.21	30.45
479.556	30.53
479.902	30.5
480.248	30.46
480.593	30.62
480.939	30.66
481.285	30.82
481.63	30.81
481.976	30.87
482.321	30.83
482.667	30.78
483.012	30.8
483.357	30.88
483.703	31
484.048	31.15
484.393	31.21
484.738	31.32
485.084	31.32
485.429	31.41
485.774	31.49
486.119	31.67
486.464	31.89
486.808	31.98
487.153	32.16
487.498	32.08
487.843	32.15
488.188	32.18
488.532	32.18
488.877	32.36
489.222	32.39
489.566	32.41
489.911	32.4
490.255	32.44
490.6	32.41
490.944	32.55
491.288	32.65
491.633	32.63
491.977	32.66
492.321	32.62
492.665	32.64
493.009	32.61
493.353	32.52
493.697	32.65
494.041	32.64
494.385	32.58
494.729	32.52
495.073	32.38
495.417	32.28
495.76	32.11
496.104	32.2
496.448	32.14
496.791	32.08
497.135	32.05
497.479	31.93
497.822	31.84
498.165	31.84
498.509	31.8
498.852	31.69
499.196	31.65
499.539	31.44
499.882	31.42
500.225	31.45
500.568	31.38
500.911	31.28
501.254	31.15
501.597	31.2
501.94	31.08
502.283	30.89
502.626	30.77
502.969	30.69
503.312	30.58
503.654	30.51
503.997	30.45
504.34	30.34
504.682	30.22
505.025	30.13
505.367	30.02
505.71	29.99
506.052	29.88
506.395	29.79
506.737	29.6
507.079	29.49
507.421	29.42
507.764	29.24
508.106	29.14
508.448	28.95
508.79	28.75
509.132	28.57
509.474	28.47
509.816	28.33
510.158	28.12
510.499	28.04
510.841	27.98
511.183	27.79
511.525	27.65
511.866	27.56
512.208	27.42
512.549	27.31
512.891	27.36
513.232	27.19
513.574	27.14
513.915	27.01
514.256	26.83
514.598	26.77
514.939	26.65
515.28	26.63
515.621	26.53
515.962	26.36
516.303	26.33
516.644	26.32
516.985	26.22
517.326	26.19
517.667	26.18
518.008	26.13
518.349	26.03
518.69	25.97
519.03	25.79
519.371	25.59
519.712	25.67
520.052	25.67
520.393	25.58
520.733	25.52
521.074	25.5
521.414	25.42
521.754	25.35
522.095	25.24
522.435	25.2
522.775	25.2
523.115	25.03
523.455	24.93
523.795	24.8
524.135	24.65
524.475	24.59
524.815	24.48
525.155	24.44
525.495	24.38
525.835	24.32
526.175	24.17
526.514	24
526.854	23.94
527.194	23.87
527.533	23.9
527.873	23.84
528.212	23.63
528.552	23.51
528.891	23.4
529.23	23.29
529.57	23.22
529.909	23.04
530.248	22.98
530.587	22.88
530.927	22.8
531.266	22.69
531.605	22.71
531.944	22.69
532.283	22.65
532.621	22.66
532.96	22.66
533.299	22.56
533.638	22.51
533.977	22.35
534.315	22.22
534.654	22.19
534.992	22.24
535.331	22.16
535.67	21.95
536.008	21.75
536.346	21.71
536.685	21.67
537.023	21.62
537.361	21.54
537.7	21.33
538.038	21.17
538.376	21.01
538.714	21.06
539.052	20.94
539.39	20.98
539.728	20.96
540.066	20.78
540.404	20.67
540.741	20.62
541.079	20.55
541.417	20.48
541.755	20.39
542.092	20.28
542.43	20.31
542.767	20.23
543.105	20.17
543.442	20.13
543.78	20.15
544.117	20.26
544.454	20.37
544.792	20.32
545.129	20.35
545.466	20.28
545.803	20.19
546.14	20.12
546.477	20.11
546.814	20.14
547.151	19.98
547.488	20.11
547.825	20.06
548.162	19.99
548.499	20.07
548.835	20.06
549.172	20.08
549.509	20.09
549.845	20.03
550.182	20.08
550.518	19.97
550.855	20.01
551.191	20.02
551.528	20.12
551.864	20
552.2	20.01
552.537	19.94
552.873	19.85
553.209	19.87
553.545	19.83
553.881	19.84
554.217	19.9
554.553	20
554.889	20
555.225	20.11
555.561	20.17
555.896	20.2
556.232	20.17
556.568	20.13
556.903	20.14
557.239	20.07
557.575	20.03
557.91	20.01
558.245	20.17
558.581	20.15
558.916	20.28
559.252	20.32
559.587	20.3
559.922	20.25
560.257	20.31
560.592	20.34
560.928	20.43
561.263	20.68
561.598	20.73
561.933	20.68
562.267	20.98
562.602	21.1
562.937	21.21
563.272	21.19
563.607	21.19
563.941	21.21
564.276	21.11
564.611	21.15
564.945	21.23
565.28	21.3
565.614	21.43
565.949	21.59
566.283	21.65
566.617	21.64
566.951	21.77
567.286	21.83
567.62	21.85
567.954	21.96
568.288	22.05
568.622	22.11
568.956	22.1
569.29	22.17
569.624	22.08
569.958	22.09
570.292	22.15
570.626	22.16
570.959	22.16
571.293	22.24
571.627	22.33
571.96	22.39
572.294	22.46
572.627	22.49
572.961	22.58
573.294	22.66
573.627	22.7
573.961	22.79
574.294	22.87
574.627	22.99
574.961	23.08
575.294	23.05
575.627	23.05
575.96	23.13
576.293	23.06
576.626	23.12
576.959	23.11
577.292	23.18
577.624	23.27
577.957	23.4
578.29	23.53
578.623	23.61
578.955	23.51
579.288	23.56
579.62	23.66
579.953	23.82
580.285	23.91
580.618	24.03
580.95	24.17
581.282	24.23
581.615	24.34
581.947	24.39
582.279	24.44
582.611	24.38
582.943	24.41
583.275	24.51
583.607	24.68
583.939	24.83
584.271	24.85
584.603	25.06
584.935	25.11
585.267	25.3
585.598	25.44
585.93	25.55
586.262	25.55
586.593	25.69
586.925	25.81
587.256	25.99
587.588	26.18
587.919	26.33
588.25	26.44
588.582	26.56
588.913	26.57
589.244	26.65
589.575	26.72
589.907	26.8
590.238	27.02
590.569	27.15
590.9	27.37
591.231	27.44
591.562	27.43
591.892	27.61
592.223	27.92
592.554	28.23
592.885	28.34
593.215	28.47
593.546	28.54
593.877	28.58
594.207	28.58
594.538	28.77
594.868	28.86
595.198	29.07
595.529	29.3
595.859	29.44
596.189	29.47
596.52	29.44
596.85	29.55
597.18	29.73
597.51	29.84
597.84	29.97
598.17	30.07
598.5	30.14
598.83	30.25
599.16	30.53
599.489	30.7
599.819	30.86
600.149	30.96
600.479	30.92
600.808	31.07
601.138	31.3
601.467	31.53
601.797	31.73
602.126	31.97
602.456	32.22
602.785	32.46
603.114	32.73
603.443	32.85
603.773	33.12
604.102	33.34
604.431	33.58
604.76	33.88
605.089	33.99
605.418	34.14
605.747	34.43
606.076	34.56
606.405	34.64
606.733	34.77
607.062	35.11
607.391	35.07
607.72	35.31
608.048	35.61
608.377	35.92
608.705	36.29
609.034	36.49
609.362	36.89
609.69	37.14
610.019	37.47
610.347	37.74
610.675	38.01
611.004	38.1
611.332	38.15
611.66	38.51
611.988	38.46
612.316	38.69
612.644	38.91
612.972	39.14
613.3	39.38
613.627	39.71
613.955	40.05
614.283	40.6
614.611	41
614.938	41.48
615.266	41.78
615.593	42.18
615.921	42.58
616.248	42.74
616.576	42.86
616.903	43.32
617.23	43.83
617.558	44.35
617.885	44.66
618.212	44.93
618.539	45.15
618.866	45.24
619.193	45.53
619.52	45.84
619.847	46.11
620.174	46.55
620.501	46.56
620.828	46.6
621.155	46.81
621.481	46.99
621.808	47.04
622.135	47.08
622.461	47.07
622.788	47.41
623.114	47.59
623.441	47.5
623.767	47.66
624.093	47.83
624.42	48.45
624.746	49.17
625.072	49.45
625.398	49.59
625.725	49.53
626.051	49.87
626.377	50.19
626.703	50.53
627.029	51.06
627.354	51.45
627.68	51.95
628.006	51.96
628.332	52.13
628.658	52.48
628.983	52.94
629.309	53.14
629.634	53.55
629.96	53.82
630.285	54.52
630.611	54.75
630.936	55
631.262	55.06
631.587	55.96
631.912	56.46
632.237	57.57
632.562	57.86
632.887	57.75
633.213	57.91
633.538	57.85
633.863	57.79
634.187	57.61
634.512	57.67
634.837	57.53
635.162	57.63
635.487	57.64
635.811	57.65
636.136	58.44
636.461	59.15
636.785	59.48
637.11	59.7
637.434	60.09
637.758	59.97
638.083	60.25
638.407	60.32
638.731	60.78
639.056	61.24
639.38	61.59
639.704	61.17
640.028	61.78
640.352	60.77
640.676	61.03
641	61.09
641.324	60.91
641.648	61.17
641.972	61.84
642.295	62.56
642.619	63.31
642.943	63.04
643.266	63.04
643.59	63.24
643.913	63.08
644.237	62.98
644.56	62.69
644.884	62.75
645.207	62.72
645.53	62.71
645.854	63.36
646.177	63.64
646.5	63.47
646.823	63.84
647.146	63.36
647.469	62.56
647.792	62.63
648.115	62.5
648.438	63.1
648.761	64.19
649.084	64.82
649.406	64.64
649.729	63.44
650.052	62.88
650.374	62.68
650.697	62.25
651.019	62.5
651.342	62.58
651.664	62.54
651.987	62.59
652.309	62.7
652.631	62.9
652.953	63.01
653.276	63.15
653.598	63.2
653.92	63.26
654.242	63.41
654.564	63.35
654.886	63.19
655.208	63.28
655.53	63.59
655.851	63.68
656.173	63.81
656.495	63.79
656.816	63.18
657.138	62.79
657.46	63.07
657.781	64.86
658.103	66.47
658.424	67.32
658.746	68.06
659.067	68.54
659.388	68.8
659.709	69.43
660.031	69.64
660.352	69.24
660.673	68.89
660.994	69
661.315	68.87
661.636	68.55
661.957	67.93
662.278	67.6
662.599	67.67
662.919	67.99
663.24	68.48
663.561	68.66
663.881	68.4
664.202	68.08
664.523	67.55
664.843	68.29
665.164	68.75
665.484	67.65
665.804	67.98
666.125	67.67
666.445	67.82
666.765	68.22
667.085	68.34
667.405	68.09
667.726	68.54
668.046	68.8
668.366	68.97
668.686	68.42
669.005	67.31
669.325	67.14
669.645	66.83
669.965	67.06
670.285	66.1
670.604	65.42
670.924	64.46
671.243	64.09
671.563	64.17
671.882	64.5
672.202	63.92
672.521	64.53
672.841	63.46
673.16	62.93
673.479	63.42
673.798	62.84
674.117	63.71
674.437	63.97
674.756	64.1
675.075	64.18
675.394	64.18
675.713	63.31
676.031	63.5
676.35	63.7
676.669	63.64
676.988	65.31
677.306	65.36
677.625	66.61
677.944	67.04
678.262	68.45
678.581	69.42
678.899	70.17
679.218	69.67
679.536	69.69
679.854	69.34
680.172	70.39
680.491	69.94
680.809	70.69
681.127	70.3
681.445	71.34
681.763	72.03
682.081	71.05
682.399	71.19
682.717	71.72
683.035	71.48
683.352	71.11
683.67	72.11
683.988	73.13
684.306	72.89
684.623	72.77
684.941	72.34
685.258	71.93
685.576	71.91
685.893	72
686.211	71.65
686.528	71.81
686.845	72.37
687.162	73.15
687.48	73.57
687.797	73.91
688.114	73.09
688.431	73.76
688.748	73.28
689.065	73.53
689.382	72.11
689.699	72.01
690.015	72.11
690.332	71.59
690.649	70.98
690.966	71.01
691.282	72.25
691.599	71.74
691.915	70.32
692.232	70.52
692.548	71.45
692.865	71.9
693.181	72.57
693.497	72.52
693.813	72.76
694.13	72.69
694.446	72.43
694.762	72.2
695.078	72.03
695.394	71.9
695.71	71.86
696.026	71.32
696.342	71.79
696.658	72.24
696.973	72.64
697.289	72.25
697.605	71.77
697.92	71.82
698.236	71.99
698.551	72.35
698.867	72.82
699.182	72.98
699.498	73.4
699.813	73.49
700.128	73.63
700.444	72.99
700.759	71.81
701.074	71.39
701.389	71.28
701.704	70.44
702.019	70.67
702.334	70.93
702.649	70.61
702.964	69.89
703.279	70.83
703.594	70.77
703.908	71.68
704.223	71.08
704.538	69.7
704.852	69.29
705.167	69.61
705.481	70.39
705.796	70.2
706.11	70.82
706.425	70.47
706.739	69.52
707.053	69.91
707.368	69.35
707.682	69.53
707.996	69.19
708.31	69.38
708.624	68.72
708.938	69.82
709.252	69.28
709.566	69.07
709.88	68.91
710.193	68.18
710.507	67.64
710.821	68.81
711.135	67.39
711.448	67.64
711.762	67.33
712.075	66.79
712.389	68.67
712.702	68.41
713.015	68.82
713.329	68.14
713.642	68.32
713.955	68.66
714.269	68.61
714.582	69.31
714.895	68.55
715.208	69.59
715.521	69.79
715.834	69.62
716.147	69.56
716.459	70.41
716.772	69.68
717.085	70.34
717.398	71.12
717.71	71.33
718.023	73.75
718.336	74.71
718.648	74.66
718.961	74.82
719.273	73.95
719.585	74.66
719.898	74.42
720.21	74.62
720.522	74.73
720.834	74.27
721.147	75.52
721.459	76.16
721.771	77.19
722.083	77.45
722.395	78.28
722.707	78.76
723.019	77.03
723.33	76.19
723.642	75.94
723.954	76.62
724.265	78.19
724.577	77.57
724.889	77.46
725.2	77.74
725.512	78.43
725.823	77.4
726.135	76.52
726.446	75.98
726.757	76.34
727.068	78.83
727.38	77.76
727.691	79.27
728.002	78.65
728.313	79.86
728.624	80.35
728.935	79.67
729.246	78.85
729.557	77.53
729.867	77.21
730.178	76.6
730.489	77.04
730.8	77.56
731.11	77.22
731.421	77.35
731.731	77.09
732.042	75.98
732.352	74.74
732.663	74.51
732.973	73.89
733.283	73.18
733.594	72.72
733.904	71.69
734.214	72.22
734.524	71.26
734.834	70.71
735.144	70.82
735.454	70.41
735.764	70.63
736.074	69.77
736.384	69.27
736.694	69.58
737.003	69.73
737.313	70.31
737.623	70.78
737.932	70.62
738.242	70.53
738.551	70.82
738.861	72.2
739.17	72.28
739.479	72.49
739.789	72.5
740.098	73.67
740.407	72.69
740.716	74.24
741.025	74.17
741.334	75.17
741.643	78.86
741.952	78.13
742.261	79.89
742.57	78.94
742.879	78.99
743.188	77.41
743.497	75.65
743.805	76.88
744.114	78.77
744.422	79.92
744.731	79.44
745.04	77.89
745.348	76.92
745.656	77.46
745.965	74.14
746.273	73.81
746.581	74.17
746.889	74.08
747.198	72.86
747.506	73.9
747.814	75.11
748.122	76.26
748.43	74.34
748.738	75.47
749.046	75.99
749.353	73.18
749.661	74.81
749.969	75.08
750.277	73.54
750.584	75.2
750.892	75.46
751.199	77.17
751.507	76.6
751.814	75.27
752.122	72.98
752.429	76.92
752.736	77.07
753.044	75.53
753.351	76.57
753.658	79.94
753.965	81.67
754.272	81.05
754.579	81.15
754.886	81.34
755.193	82.27
755.5	82.35
755.807	81.31
756.114	82.52
756.42	81.13
756.727	80.12
757.034	83.19
757.34	84.18
757.647	85.22
757.953	85.51
758.26	84.21
758.566	83.12
758.872	83.4
759.179	85.73
759.485	85.62
759.791	86.12
760.097	83.03
760.403	84.61
760.709	87.38
761.015	86.38
761.321	83.97
761.627	81.65
761.933	81.38
762.239	81.26
762.545	81.65
762.851	80.29
763.156	80.64
763.462	82.97
763.767	81.47
764.073	79.86
764.378	80.1
764.684	76.73
764.989	74.65
765.295	70.75
765.6	70.04
765.905	69.71
766.21	71.63
766.515	71.29
766.821	69.44
767.126	67.89
767.431	73.55
767.736	72.29
768.041	68.32
768.345	68.87
768.65	70.67
768.955	72.04
769.26	71.18
769.564	72.78
769.869	74.47
770.174	73.76
770.478	73.91
770.783	72.89
771.087	71.23
771.391	73.68
771.696	80.17
772	83.19
772.304	87.61
772.608	89.11
772.913	94.28
773.217	99.92
773.521	100.03
773.825	98.22
774.129	96.55
774.433	94.83
774.736	93.36
775.04	91.25
775.344	94.56
775.648	98.6
775.951	96.6
776.255	93.55
776.559	94.83
776.862	96.4
777.166	95.94
777.469	94.95
777.772	90.68
778.076	87.3
778.379	84.89
778.682	87.73
778.985	86.51
779.289	82.67
779.592	81.08
779.895	78.72
780.198	80.44
780.501	76.74
780.804	67.2
781.106	68.73
781.409	73.51
781.712	75.84
782.015	76.11
782.317	79.12
782.62	74.86
782.923	77.5
783.225	73.54
783.527	74.55
783.83	69.67
784.132	68.7
784.435	70.88
784.737	72.79
785.039	78.14
785.341	80.7
785.643	77.17
785.945	74.47
786.248	70.74
786.55	72.77
786.851	75.07
787.153	73.81
787.455	73.84
787.757	69.88
788.059	74.29
788.36	80.62
788.662	86
788.964	77.5
789.265	74.59
789.567	76.15
789.868	78.32
790.17	83.58
790.471	81.5
790.772	85.71
791.074	91.58
791.375	103.34
791.676	104.48
791.977	108.15
792.278	97.43
792.579	82.75
792.88	81.73
793.181	89.81
793.482	103.49
793.783	99.06
794.083	91.88
794.384	99.22
794.685	100.64
794.986	93.55
795.286	89.55
795.587	86.68
795.887	94.1
796.188	86.44
796.488	94.26
796.788	102.16
797.089	95.14
797.389	92.28
797.689	93.93
797.989	87.07
798.289	83.26
798.589	73.22
798.889	65.59
799.189	72.16
799.489	61.58
799.789	62.25
800.089	93.03
800.389	115.6
800.688	115.92
800.988	126.58
801.288	153.19
801.587	144.21
801.887	142.5
802.186	141.3
802.486	167.69
802.785	211.74
803.085	369.49
803.384	1528.57
803.683	-404.79
803.982	-1208.8
804.281	-698.19
804.58	-1474.57
804.879	-3133.03
805.178	-1299.16
805.477	776.85
805.776	384.37
806.075	272.27
806.374	189.73
806.673	155.58
806.971	173.61
807.27	149.53
807.569	108.7
807.867	105.88
808.166	100.47
808.464	75.39
808.763	71.75
809.061	79.96
809.359	62.16
809.658	61.2
809.956	57.27
810.254	63.28
810.552	44.28
810.85	43.36
811.148	49.65
811.446	44.8
811.744	48.23
812.042	37.96
812.34	18.94
812.638	23.8
812.935	34.18
813.233	35.04
813.531	54.05
813.828	56.47
814.126	73.09
814.423	71.58
814.721	75.32
815.018	106.03
815.316	92.43
815.613	95.62
815.91	135.02
816.207	174.18
816.504	220.78
816.802	264.81
817.099	281.1
817.396	202.49
817.693	170.19
817.99	208.72
818.286	202.1
818.583	216.5
818.88	303.22
819.177	267.89
819.473	193.93
819.77	273.19
820.067	212.27
820.363	191.34
820.66	191.21
820.956	181.53
821.252	203.95
821.549	210.12
821.845	228.5
822.141	240.8
822.437	238.63
822.734	253.35
823.03	260.42
823.326	243.58
823.622	235.29
823.918	210.5
824.213	191.96
824.509	174.03
824.805	198.93
825.101	205.39
825.397	191.11
825.692	220.02
825.988	235.39
826.283	180.19
826.579	149.56
826.874	293.87
827.17	221.39
827.465	265.6
827.76	383.65
828.056	496.36
828.351	955.46
828.646	-648.56
828.941	704.14
829.236	370.81
829.531	510.24
829.826	657.87
830.121	-785.29
830.416	-418.3
830.711	-106.02
831.006	-130.13
831.3	-286.04
831.595	-210.08
831.89	-113.86
832.184	-184.38
832.479	-262.06
832.773	-142.19
833.068	-952.8
833.362	-3762.3
833.656	2051.3
833.951	-855.79
834.245	240.88
834.539	1355.65
834.833	539.4
835.127	325.65
835.421	322.68
835.715	324.64
836.009	247.72
836.303	258.98
836.597	214.66
836.891	136.36
837.185	97.25
837.478	101.96
837.772	90.91
838.066	116.61
838.359	109.8
838.653	113.69
838.946	126.04
839.24	102.73
839.533	116.74
839.826	135.21
840.119	119.86
840.413	114.71
840.706	97.01
840.999	93.47
841.292	80.03
841.585	70.81
841.878	58.47
842.171	51.19
842.464	52.12
842.757	54.27
843.049	57.4
843.342	55.46
843.635	68.71
843.927	67.56
844.22	70.57
844.513	67.44
844.805	61.24
845.098	65.51
845.39	54.54
845.682	50.66
845.975	31.78
846.267	28.81
846.559	31.15
846.851	35.23
847.143	28.25
847.435	34.26
847.727	36.09
848.019	39.3
848.311	33.96
848.603	40.75
848.895	63.29
849.186	69.84
849.478	62.72
849.77	65.2
850.061	40.62
850.353	47.87
850.645	49.32
850.936	46.09
851.227	59.26
851.519	56.4
851.81	64
852.101	63.61
852.393	50.17
852.684	38.77
852.975	47
853.266	225.06
853.557	131.26
853.848	158.27
854.139	151.59
854.43	422.12
854.72	-1048.62
855.011	1705.97
855.302	345.35
855.593	-444.8
855.883	41833.33
856.174	188.4
856.464	627.69
856.755	1127.69
857.045	311.06
857.336	1120.85
857.626	2366.67
857.916	664.51
858.206	-249.81
858.497	-102.53
858.787	-58.43
859.077	-38.01
859.367	-82.56
859.657	-85.19
859.947	-73.22
860.237	-128.83
860.527	-1964
860.816	561.77
861.106	2232.52
861.396	543.85
861.685	92500
861.975	395.39
862.265	-602.1
862.554	-588.83
862.844	449.12
863.133	-2927.52
863.422	-932.66
863.712	-855.21
864.001	609.98
864.29	-1188
864.579	-4723.53
864.868	2478.95
865.157	-1324.88
865.446	752.63
865.735	323.79
866.024	393.95
866.313	261.52
866.602	1300
866.891	587.39
867.179	493.47
867.468	3280.95
