Data from T1_Reflection__59__23-01-59-187.txt Node

Date: Wed Jun 02 23:01:59 CEST 2021
User: mabdelazizm
Spectrometer: FLMS18565
Trigger mode: 0
Integration Time (sec): 2.000000E0
Scans to average: 1
Electric dark correction enabled: true
Nonlinearity correction enabled: false
Boxcar width: 12
XAxis mode: Wavelengths
Number of Pixels in Spectrum: 2048
>>>>>Begin Spectral Data<<<<<
179.071	133.13
179.452	246.25
179.833	164.13
180.214	149.09
180.595	150.47
180.977	247.97
181.358	154.2
181.739	315.69
182.12	42.35
182.501	150.58
182.882	132.84
183.262	101.9
183.643	81.39
184.024	53.99
184.405	48.57
184.786	47.65
185.166	37.7
185.547	27.29
185.927	24.74
186.308	24
186.689	26.46
187.069	22.13
187.449	16.54
187.83	16.45
188.21	13.56
188.59	14.54
188.971	15.34
189.351	12.88
189.731	14.1
190.111	17.82
190.491	17.45
190.871	17.33
191.251	16.9
191.631	17.61
192.011	15.78
192.391	13.9
192.771	17.33
193.151	15.72
193.531	14.66
193.91	14.41
194.29	14.23
194.67	14.62
195.049	13.94
195.429	15.2
195.808	14.71
196.188	14.04
196.567	13.56
196.946	13.4
197.326	13.15
197.705	13.22
198.084	12.38
198.464	11.78
198.843	12.66
199.222	12.63
199.601	12.53
199.98	11.43
200.359	11.26
200.738	12.8
201.117	13.29
201.496	13.21
201.875	13
202.254	11.34
202.632	10.39
203.011	10.75
203.39	10.79
203.768	10.74
204.147	12.23
204.525	11.81
204.904	11.06
205.282	10.9
205.661	10.17
206.039	11.18
206.418	11.06
206.796	12.32
207.174	12.88
207.552	13.97
207.931	14.51
208.309	14.57
208.687	13.19
209.065	14.04
209.443	13.81
209.821	13.61
210.199	12.39
210.577	11.67
210.954	11.16
211.332	10.92
211.71	10.79
212.088	11.47
212.465	11.47
212.843	11.34
213.221	10.89
213.598	10.64
213.976	10.51
214.353	10.73
214.731	10.68
215.108	11.12
215.485	10.2
215.863	10.33
216.24	9.3
216.617	9.88
216.994	9.01
217.371	7.48
217.749	7.26
218.126	7.63
218.503	6.57
218.88	6.31
219.256	6.21
219.633	6.21
220.01	6.58
220.387	6.66
220.764	6.5
221.14	6.27
221.517	6.03
221.894	5.56
222.27	5.99
222.647	6.28
223.023	5.63
223.4	5.94
223.776	6
224.153	5.84
224.529	5.78
224.905	6.45
225.282	6.22
225.658	5.92
226.034	5.43
226.41	5.19
226.786	5.57
227.162	5.51
227.538	5.56
227.914	5.48
228.29	5.39
228.666	5.11
229.042	4.79
229.418	4.65
229.793	4.61
230.169	4.78
230.545	4.91
230.92	4.94
231.296	5.05
231.672	4.89
232.047	4.71
232.422	4.72
232.798	4.54
233.173	4.31
233.549	4.38
233.924	4.22
234.299	3.82
234.674	3.82
235.05	3.86
235.425	3.91
235.8	3.85
236.175	3.75
236.55	3.76
236.925	3.7
237.3	3.78
237.675	3.76
238.049	3.84
238.424	3.97
238.799	4.02
239.174	4
239.548	3.77
239.923	3.7
240.297	3.67
240.672	3.63
241.046	3.6
241.421	3.57
241.795	3.51
242.17	3.54
242.544	3.51
242.918	3.41
243.293	3.45
243.667	3.55
244.041	3.49
244.415	3.49
244.789	3.44
245.163	3.49
245.537	3.51
245.911	3.46
246.285	3.49
246.659	3.48
247.033	3.52
247.406	3.44
247.78	3.31
248.154	3.23
248.528	3.21
248.901	3.27
249.275	3.27
249.648	3.27
250.022	3.3
250.395	3.23
250.769	3.2
251.142	3.27
251.515	3.24
251.888	3.2
252.262	3.18
252.635	3.1
253.008	3.02
253.381	3.03
253.754	3.01
254.127	3.02
254.5	2.94
254.873	2.83
255.246	2.82
255.619	2.8
255.992	2.72
256.364	2.73
256.737	2.82
257.11	2.91
257.483	2.89
257.855	2.86
258.228	2.88
258.6	2.84
258.973	2.81
259.345	2.79
259.718	2.77
260.09	2.79
260.462	2.69
260.834	2.68
261.207	2.72
261.579	2.75
261.951	2.74
262.323	2.76
262.695	2.71
263.067	2.71
263.439	2.7
263.811	2.78
264.183	2.8
264.555	2.77
264.927	2.79
265.298	2.8
265.67	2.75
266.042	2.68
266.413	2.58
266.785	2.6
267.156	2.63
267.528	2.59
267.899	2.6
268.271	2.6
268.642	2.57
269.013	2.6
269.385	2.64
269.756	2.7
270.127	2.69
270.498	2.68
270.87	2.62
271.241	2.63
271.612	2.65
271.983	2.64
272.354	2.63
272.724	2.62
273.095	2.6
273.466	2.56
273.837	2.59
274.208	2.46
274.578	2.46
274.949	2.45
275.32	2.48
275.69	2.5
276.061	2.48
276.431	2.45
276.802	2.44
277.172	2.4
277.542	2.4
277.913	2.38
278.283	2.37
278.653	2.27
279.023	2.29
279.394	2.3
279.764	2.26
280.134	2.28
280.504	2.32
280.874	2.25
281.244	2.19
281.614	2.09
281.983	2.12
282.353	2.08
282.723	2.15
283.093	2.15
283.462	2.2
283.832	2.19
284.202	2.2
284.571	2.19
284.941	2.17
285.31	2.15
285.68	2.16
286.049	2.14
286.418	2.12
286.788	2.12
287.157	2.07
287.526	2.04
287.895	2.02
288.264	1.98
288.633	1.91
289.002	1.9
289.371	1.88
289.74	1.8
290.109	1.83
290.478	1.88
290.847	1.91
291.216	1.88
291.585	1.83
291.953	1.78
292.322	1.76
292.691	1.75
293.059	1.7
293.428	1.65
293.796	1.62
294.165	1.63
294.533	1.63
294.901	1.62
295.27	1.62
295.638	1.61
296.006	1.57
296.374	1.6
296.743	1.61
297.111	1.66
297.479	1.58
297.847	1.62
298.215	1.58
298.583	1.58
298.95	1.64
299.318	1.62
299.686	1.61
300.054	1.64
300.422	1.64
300.789	1.72
301.157	1.71
301.525	1.66
301.892	1.64
302.26	1.68
302.627	1.73
302.994	1.73
303.362	1.68
303.729	1.66
304.097	1.64
304.464	1.66
304.831	1.7
305.198	1.65
305.565	1.69
305.932	1.67
306.299	1.62
306.666	1.67
307.033	1.62
307.4	1.67
307.767	1.64
308.134	1.66
308.501	1.64
308.867	1.6
309.234	1.61
309.601	1.61
309.967	1.63
310.334	1.66
310.701	1.62
311.067	1.61
311.433	1.62
311.8	1.6
312.166	1.62
312.533	1.72
312.899	1.72
313.265	1.7
313.631	1.73
313.997	1.74
314.363	1.73
314.729	1.7
315.096	1.63
315.461	1.66
315.827	1.63
316.193	1.66
316.559	1.68
316.925	1.71
317.291	1.64
317.656	1.69
318.022	1.74
318.388	1.77
318.753	1.7
319.119	1.63
319.484	1.56
319.85	1.63
320.215	1.66
320.581	1.68
320.946	1.69
321.311	1.65
321.676	1.57
322.042	1.56
322.407	1.56
322.772	1.56
323.137	1.54
323.502	1.6
323.867	1.6
324.232	1.64
324.597	1.64
324.962	1.72
325.327	1.74
325.691	1.73
326.056	1.76
326.421	1.78
326.785	1.74
327.15	1.65
327.514	1.61
327.879	1.64
328.243	1.64
328.608	1.69
328.972	1.7
329.337	1.68
329.701	1.7
330.065	1.72
330.429	1.72
330.794	1.72
331.158	1.73
331.522	1.73
331.886	1.69
332.25	1.58
332.614	1.57
332.978	1.55
333.342	1.6
333.705	1.59
334.069	1.5
334.433	1.53
334.797	1.51
335.16	1.47
335.524	1.47
335.887	1.5
336.251	1.63
336.614	1.64
336.978	1.63
337.341	1.65
337.705	1.67
338.068	1.69
338.431	1.72
338.794	1.64
339.158	1.57
339.521	1.55
339.884	1.54
340.247	1.55
340.61	1.57
340.973	1.58
341.336	1.69
341.699	1.72
342.062	1.74
342.424	1.7
342.787	1.72
343.15	1.71
343.512	1.67
343.875	1.59
344.238	1.54
344.6	1.54
344.963	1.56
345.325	1.46
345.688	1.44
346.05	1.42
346.412	1.39
346.775	1.4
347.137	1.38
347.499	1.32
347.861	1.37
348.223	1.36
348.585	1.37
348.947	1.43
349.309	1.41
349.671	1.38
350.033	1.37
350.395	1.31
350.757	1.23
351.118	1.25
351.48	1.27
351.842	1.31
352.203	1.29
352.565	1.28
352.927	1.42
353.288	1.44
353.65	1.42
354.011	1.34
354.372	1.41
354.734	1.38
355.095	1.39
355.456	1.35
355.817	1.3
356.179	1.25
356.54	1.25
356.901	1.28
357.262	1.27
357.623	1.29
357.984	1.23
358.345	1.21
358.705	1.21
359.066	1.17
359.427	1.19
359.788	1.2
360.148	1.12
360.509	1.04
360.87	0.99
361.23	0.98
361.591	1.05
361.951	1
362.312	1.04
362.672	1.02
363.032	1.05
363.393	1
363.753	0.99
364.113	0.96
364.473	1.01
364.833	1.06
365.193	1.01
365.553	1.03
365.913	0.96
366.273	0.98
366.633	1.03
366.993	1.04
367.353	1.02
367.713	1.03
368.072	1.08
368.432	1.03
368.792	1.09
369.151	1.12
369.511	1.15
369.87	1.12
370.23	1.19
370.589	1.11
370.949	1.13
371.308	1.13
371.667	1.14
372.027	1.14
372.386	1.19
372.745	1.23
373.104	1.23
373.463	1.23
373.822	1.2
374.181	1.24
374.54	1.15
374.899	1.14
375.258	1.08
375.617	1.03
375.975	1.09
376.334	1.18
376.693	1.18
377.052	1.16
377.41	1.18
377.769	1.13
378.127	1.08
378.486	1.1
378.844	1.07
379.202	1.04
379.561	1.08
379.919	0.97
380.277	1.03
380.636	1.09
380.994	1.11
381.352	1.05
381.71	1.01
382.068	1.03
382.426	1.05
382.784	1.06
383.142	1.11
383.5	1.16
383.857	1.21
384.215	1.27
384.573	1.2
384.931	1.12
385.288	1.07
385.646	0.99
386.003	1
386.361	1.04
386.718	1.06
387.076	1.12
387.433	1.17
387.791	1.2
388.148	1.28
388.505	1.29
388.862	1.29
389.22	1.28
389.577	1.29
389.934	1.31
390.291	1.3
390.648	1.33
391.005	1.29
391.362	1.18
391.718	1.17
392.075	1.17
392.432	1.17
392.789	1.17
393.145	1.2
393.502	1.24
393.859	1.24
394.215	1.31
394.572	1.39
394.928	1.38
395.285	1.4
395.641	1.4
395.997	1.38
396.354	1.37
396.71	1.43
397.066	1.43
397.422	1.42
397.778	1.54
398.134	1.44
398.491	1.4
398.846	1.39
399.202	1.52
399.558	1.6
399.914	1.64
400.27	1.7
400.626	1.75
400.981	1.73
401.337	1.74
401.693	1.74
402.048	1.74
402.404	1.8
402.759	1.83
403.115	1.79
403.47	1.84
403.826	1.92
404.181	1.94
404.536	1.94
404.892	1.98
405.247	1.95
405.602	1.91
405.957	1.89
406.312	1.97
406.667	1.96
407.022	2.05
407.377	2.04
407.732	2.02
408.087	1.96
408.442	1.89
408.796	1.9
409.151	1.91
409.506	1.93
409.86	1.9
410.215	1.93
410.57	2.02
410.924	2
411.279	2
411.633	2.1
411.987	2.24
412.342	2.21
412.696	2.15
413.05	2.18
413.404	2.23
413.758	2.35
414.113	2.38
414.467	2.41
414.821	2.37
415.175	2.35
415.529	2.37
415.882	2.38
416.236	2.42
416.59	2.41
416.944	2.41
417.298	2.49
417.651	2.46
418.005	2.54
418.358	2.6
418.712	2.71
419.065	2.75
419.419	2.7
419.772	2.74
420.126	2.83
420.479	2.85
420.832	2.85
421.185	2.79
421.539	2.85
421.892	2.86
422.245	2.9
422.598	2.94
422.951	3.06
423.304	3.1
423.657	3.24
424.01	3.36
424.363	3.47
424.715	3.54
425.068	3.54
425.421	3.71
425.773	3.82
426.126	3.96
426.479	4.12
426.831	4.19
427.184	4.21
427.536	4.3
427.889	4.42
428.241	4.56
428.593	4.71
428.945	4.82
429.298	4.88
429.65	4.98
430.002	5.23
430.354	5.45
430.706	5.56
431.058	5.62
431.41	5.69
431.762	5.75
432.114	5.91
432.466	5.97
432.817	5.99
433.169	6.08
433.521	6.12
433.872	6.31
434.224	6.27
434.576	6.33
434.927	6.28
435.279	6.35
435.63	6.4
435.981	6.44
436.333	6.49
436.684	6.49
437.035	6.5
437.387	6.5
437.738	6.47
438.089	6.41
438.44	6.36
438.791	6.26
439.142	6.11
439.493	6.11
439.844	6.16
440.195	6.1
440.545	6.05
440.896	5.99
441.247	6.02
441.598	6.03
441.948	5.97
442.299	5.98
442.649	6.03
443	6.16
443.35	6.22
443.701	6.24
444.051	6.26
444.401	6.26
444.752	6.22
445.102	6.23
445.452	6.19
445.802	6.2
446.152	6.27
446.502	6.33
446.852	6.44
447.202	6.41
447.552	6.43
447.902	6.49
448.252	6.48
448.602	6.67
448.952	6.68
449.301	6.77
449.651	6.77
450.001	6.83
450.35	6.9
450.7	7.05
451.049	7.04
451.399	7.1
451.748	7.07
452.097	7.02
452.447	7.17
452.796	7.22
453.145	7.38
453.494	7.46
453.843	7.51
454.193	7.69
454.542	7.78
454.891	7.7
455.239	7.78
455.588	7.97
455.937	8.19
456.286	8.36
456.635	8.64
456.984	8.81
457.332	8.76
457.681	8.94
458.03	9.08
458.378	9.25
458.727	9.26
459.075	9.3
459.423	9.4
459.772	9.54
460.12	9.62
460.468	9.73
460.817	9.94
461.165	9.98
461.513	10.02
461.861	10.09
462.209	10.15
462.557	10.13
462.905	10.15
463.253	10.19
463.601	10.25
463.949	10.24
464.297	10.1
464.644	10.05
464.992	10.09
465.34	9.97
465.687	9.94
466.035	9.85
466.383	9.83
466.73	9.74
467.078	9.71
467.425	9.64
467.772	9.6
468.12	9.39
468.467	9.39
468.814	9.29
469.161	9.23
469.508	9.06
469.856	8.87
470.203	8.83
470.55	8.65
470.897	8.57
471.243	8.59
471.59	8.46
471.937	8.4
472.284	8.4
472.631	8.31
472.977	8.33
473.324	8.27
473.671	8.13
474.017	8.01
474.364	7.89
474.71	7.85
475.057	7.76
475.403	7.59
475.749	7.45
476.096	7.42
476.442	7.42
476.788	7.43
477.134	7.38
477.48	7.28
477.826	7.32
478.172	7.42
478.518	7.49
478.864	7.46
479.21	7.53
479.556	7.61
479.902	7.58
480.248	7.58
480.593	7.63
480.939	7.66
481.285	7.75
481.63	7.8
481.976	7.81
482.321	7.86
482.667	7.95
483.012	8.07
483.357	8.16
483.703	8.34
484.048	8.68
484.393	8.95
484.738	9.23
485.084	9.38
485.429	9.57
485.774	9.77
486.119	10.01
486.464	10.2
486.808	10.4
487.153	10.67
487.498	10.88
487.843	11.16
488.188	11.4
488.532	11.7
488.877	12.15
489.222	12.55
489.566	12.89
489.911	13.2
490.255	13.55
490.6	13.99
490.944	14.43
491.288	14.8
491.633	15.17
491.977	15.52
492.321	15.84
492.665	16.18
493.009	16.47
493.353	16.64
493.697	16.99
494.041	17.34
494.385	17.75
494.729	18.08
495.073	18.4
495.417	18.78
495.76	19.06
496.104	19.44
496.448	19.76
496.791	20.17
497.135	20.54
497.479	20.8
497.822	21.03
498.165	21.39
498.509	21.7
498.852	21.96
499.196	22.27
499.539	22.44
499.882	22.73
500.225	22.97
500.568	23.19
500.911	23.35
501.254	23.46
501.597	23.72
501.94	24
502.283	24.26
502.626	24.53
502.969	24.69
503.312	24.9
503.654	25.07
503.997	25.13
504.34	25.21
504.682	25.39
505.025	25.42
505.367	25.48
505.71	25.59
506.052	25.68
506.395	25.73
506.737	25.71
507.079	25.74
507.421	25.84
507.764	25.87
508.106	25.96
508.448	25.94
508.79	26.02
509.132	26.06
509.474	26.15
509.816	26.16
510.158	26.05
510.499	26.02
510.841	25.92
511.183	25.81
511.525	25.74
511.866	25.71
512.208	25.61
512.549	25.54
512.891	25.63
513.232	25.61
513.574	25.66
513.915	25.62
514.256	25.59
514.598	25.62
514.939	25.7
515.28	25.72
515.621	25.73
515.962	25.68
516.303	25.66
516.644	25.68
516.985	25.68
517.326	25.68
517.667	25.74
518.008	25.72
518.349	25.73
518.69	25.77
519.03	25.72
519.371	25.71
519.712	25.71
520.052	25.65
520.393	25.59
520.733	25.54
521.074	25.56
521.414	25.54
521.754	25.39
522.095	25.41
522.435	25.4
522.775	25.43
523.115	25.32
523.455	25.19
523.795	25.07
524.135	25.11
524.475	25.11
524.815	25.13
525.155	25.15
525.495	25.09
525.835	24.96
526.175	24.83
526.514	24.79
526.854	24.8
527.194	24.76
527.533	24.72
527.873	24.66
528.212	24.55
528.552	24.58
528.891	24.6
529.23	24.68
529.57	24.67
529.909	24.55
530.248	24.63
530.587	24.44
530.927	24.46
531.266	24.37
531.605	24.4
531.944	24.44
532.283	24.5
532.621	24.37
532.96	24.34
533.299	24.32
533.638	24.29
533.977	24.23
534.315	24.15
534.654	24.2
534.992	24.06
535.331	23.92
535.67	23.79
536.008	23.61
536.346	23.47
536.685	23.51
537.023	23.42
537.361	23.29
537.7	23.18
538.038	23.05
538.376	22.96
538.714	22.96
539.052	23.02
539.39	22.92
539.728	22.89
540.066	22.82
540.404	22.59
540.741	22.5
541.079	22.39
541.417	22.26
541.755	22.01
542.092	21.86
542.43	21.79
542.767	21.87
543.105	21.76
543.442	21.76
543.78	21.71
544.117	21.79
544.454	21.9
544.792	22.01
545.129	21.98
545.466	21.89
545.803	21.82
546.14	21.76
546.477	21.83
546.814	21.85
547.151	21.64
547.488	21.58
547.825	21.55
548.162	21.51
548.499	21.41
548.835	21.46
549.172	21.38
549.509	21.38
549.845	21.48
550.182	21.6
550.518	21.68
550.855	21.79
551.191	21.66
551.528	21.79
551.864	21.72
552.2	21.78
552.537	21.78
552.873	21.78
553.209	21.78
553.545	21.79
553.881	21.97
554.217	22.02
554.553	22.01
554.889	22.07
555.225	22.05
555.561	22.12
555.896	22.18
556.232	22.14
556.568	22.09
556.903	22.11
557.239	22.26
557.575	22.38
557.91	22.48
558.245	22.54
558.581	22.52
558.916	22.49
559.252	22.47
559.587	22.37
559.922	22.26
560.257	22.32
560.592	22.38
560.928	22.35
561.263	22.44
561.598	22.41
561.933	22.49
562.267	22.57
562.602	22.58
562.937	22.71
563.272	22.68
563.607	22.87
563.941	23.03
564.276	22.97
564.611	23.13
564.945	23.22
565.28	23.23
565.614	23.14
565.949	23.18
566.283	23.17
566.617	23.18
566.951	23.25
567.286	23.36
567.62	23.39
567.954	23.63
568.288	23.68
568.622	23.72
568.956	23.62
569.29	23.67
569.624	23.7
569.958	23.71
570.292	23.62
570.626	23.7
570.959	23.74
571.293	23.81
571.627	23.87
571.96	23.85
572.294	23.88
572.627	23.92
572.961	23.87
573.294	23.94
573.627	24.01
573.961	24.08
574.294	24.21
574.627	24.27
574.961	24.28
575.294	24.3
575.627	24.17
575.96	24.2
576.293	24.1
576.626	24.12
576.959	24.16
577.292	24.24
577.624	24.27
577.957	24.34
578.29	24.46
578.623	24.51
578.955	24.42
579.288	24.46
579.62	24.42
579.953	24.46
580.285	24.53
580.618	24.48
580.95	24.59
581.282	24.61
581.615	24.68
581.947	24.7
582.279	24.72
582.611	24.69
582.943	24.75
583.275	24.83
583.607	24.89
583.939	25.13
584.271	25.18
584.603	25.41
584.935	25.55
585.267	25.65
585.598	25.76
585.93	25.92
586.262	25.89
586.593	25.95
586.925	26.02
587.256	26.14
587.588	26.26
587.919	26.48
588.25	26.58
588.582	26.68
588.913	26.88
589.244	26.91
589.575	27.02
589.907	27.03
590.238	27.17
590.569	27.36
590.9	27.52
591.231	27.64
591.562	27.66
591.892	27.74
592.223	27.81
592.554	27.96
592.885	27.98
593.215	27.95
593.546	27.99
593.877	27.96
594.207	27.89
594.538	28.03
594.868	28.17
595.198	28.39
595.529	28.55
595.859	28.64
596.189	28.64
596.52	28.78
596.85	28.96
597.18	29.02
597.51	29.07
597.84	29.21
598.17	29.31
598.5	29.42
598.83	29.55
599.16	29.79
599.489	29.94
599.819	30
600.149	30.24
600.479	30.37
600.808	30.48
601.138	30.61
601.467	30.82
601.797	31.01
602.126	31.23
602.456	31.43
602.785	31.6
603.114	31.88
603.443	32.2
603.773	32.36
604.102	32.56
604.431	32.83
604.76	32.94
605.089	33
605.418	33.19
605.747	33.46
606.076	33.69
606.405	33.89
606.733	34.08
607.062	34.39
607.391	34.39
607.72	34.49
608.048	34.81
608.377	34.89
608.705	35.22
609.034	35.46
609.362	35.84
609.69	36.23
610.019	36.6
610.347	36.92
610.675	37.19
611.004	37.36
611.332	37.39
611.66	37.5
611.988	37.65
612.316	37.75
612.644	37.9
612.972	38.11
613.3	38.28
613.627	38.62
613.955	38.74
614.283	39
614.611	39.12
614.938	39.32
615.266	39.53
615.593	39.97
615.921	40.21
616.248	40.25
616.576	40.86
616.903	41.34
617.23	42.02
617.558	42.41
617.885	42.49
618.212	42.56
618.539	42.93
618.866	43.09
619.193	43.53
619.52	43.74
619.847	43.66
620.174	43.84
620.501	44.15
620.828	44.32
621.155	44.54
621.481	44.76
621.808	44.93
622.135	45.21
622.461	45.52
622.788	45.63
623.114	46.12
623.441	46.03
623.767	46.19
624.093	46.61
624.42	47.2
624.746	47.45
625.072	47.4
625.398	47.56
625.725	47.46
626.051	47.91
626.377	48.43
626.703	48.9
627.029	49.49
627.354	49.72
627.68	50.22
628.006	50.99
628.332	51.31
628.658	51.54
628.983	51.85
629.309	52.32
629.634	52.53
629.96	52.58
630.285	53.19
630.611	53.25
630.936	54.1
631.262	54
631.587	54.56
631.912	54.86
632.237	55.13
632.562	55.83
632.887	56.01
633.213	56.22
633.538	56.35
633.863	56.24
634.187	56.52
634.512	56.94
634.837	56.73
635.162	56.72
635.487	56.74
635.811	56.56
636.136	57.11
636.461	57.39
636.785	57.57
637.11	57.92
637.434	57.95
637.758	58.49
638.083	58.49
638.407	58.79
638.731	59.39
639.056	59.59
639.38	60.12
639.704	59.94
640.028	60.29
640.352	60.28
640.676	60.01
641	59.59
641.324	59.38
641.648	58.98
641.972	59.86
642.295	60.02
642.619	59.89
642.943	59.87
643.266	60.01
643.59	60.46
643.913	60.78
644.237	60.47
644.56	60.81
644.884	60.89
645.207	61.17
645.53	61.05
645.854	60.76
646.177	61.13
646.5	61.26
646.823	61.23
647.146	60.97
647.469	60.41
647.792	60.85
648.115	60.63
648.438	60.95
648.761	61.94
649.084	61.63
649.406	61.55
649.729	60.86
650.052	60.36
650.374	60.08
650.697	59.75
651.019	59.73
651.342	59.86
651.664	59.8
651.987	59.68
652.309	59.69
652.631	59.86
652.953	59.98
653.276	59.84
653.598	59.88
653.92	59.96
654.242	60.09
654.564	60.05
654.886	59.9
655.208	59.9
655.53	60.02
655.851	59.96
656.173	60.1
656.495	60.12
656.816	59.65
657.138	59.81
657.46	60.04
657.781	61.04
658.103	62.5
658.424	63.95
658.746	64.69
659.067	65.35
659.388	65.27
659.709	65.49
660.031	65.67
660.352	65.7
660.673	65.19
660.994	65.5
661.315	66.06
661.636	66.62
661.957	66.94
662.278	66.2
662.599	65.95
662.919	66.19
663.24	66.55
663.561	66.71
663.881	66.03
664.202	65.94
664.523	65.16
664.843	64.87
665.164	64.34
665.484	63.39
665.804	63.76
666.125	63.44
666.445	62.61
666.765	62.6
667.085	62.67
667.405	63.35
667.726	63.67
668.046	64.21
668.366	63.98
668.686	63.52
669.005	62.67
669.325	62.28
669.645	61.31
669.965	60.67
670.285	60.98
670.604	60.6
670.924	60.31
671.243	59.81
671.563	60.08
671.882	60.67
672.202	60.38
672.521	61.33
672.841	61.78
673.16	61.88
673.479	62.85
673.798	62.48
674.117	63.06
674.437	62.77
674.756	63.53
675.075	63.15
675.394	61.9
675.713	61.7
676.031	62
676.35	62.35
676.669	62.61
676.988	63.51
677.306	63.96
677.625	65.2
677.944	65.79
678.262	65.65
678.581	66.23
678.899	66.35
679.218	66.7
679.536	66.93
679.854	66.57
680.172	66.89
680.491	66.17
680.809	66.24
681.127	66.29
681.445	66.13
681.763	66.62
682.081	65.56
682.399	66.24
682.717	66.38
683.035	67.01
683.352	67.09
683.67	66.63
683.988	66.92
684.306	66.3
684.623	65.9
684.941	65.78
685.258	65.48
685.576	65.09
685.893	64.74
686.211	64.62
686.528	64.56
686.845	65.52
687.162	65.42
687.48	65.55
687.797	65.53
688.114	64.66
688.431	65.48
688.748	65.28
689.065	65.93
689.382	64.83
689.699	64.72
690.015	65.71
690.332	66.01
690.649	66.26
690.966	66.23
691.282	66.62
691.599	67.6
691.915	66.66
692.232	67.17
692.548	67.53
692.865	67.75
693.181	67.58
693.497	68
693.813	68.83
694.13	68.85
694.446	70.15
694.762	69.8
695.078	69.9
695.394	69.54
695.71	69.92
696.026	70.62
696.342	70.61
696.658	71.13
696.973	70.63
697.289	70.97
697.605	70.65
697.92	69.69
698.236	69.3
698.551	68.45
698.867	68
699.182	69.51
699.498	68.37
699.813	68.5
700.128	68.73
700.444	69.24
700.759	68.13
701.074	68.78
701.389	68.53
701.704	67.45
702.019	69.17
702.334	68.5
702.649	67.94
702.964	67.24
703.279	66.62
703.594	66.8
703.908	66.55
704.223	66.21
704.538	65.16
704.852	65.23
705.167	65.1
705.481	66.26
705.796	66.79
706.11	66.58
706.425	66.65
706.739	66.5
707.053	65.76
707.368	66.17
707.682	65.91
707.996	65.99
708.31	65.49
708.624	65.58
708.938	65.08
709.252	64.18
709.566	64.67
709.88	64.01
710.193	63.01
710.507	63.55
710.821	65.11
711.135	65.27
711.448	65.43
711.762	66.29
712.075	65.6
712.389	67.39
712.702	67.11
713.015	66.78
713.329	66.45
713.642	66.55
713.955	66.82
714.269	66.91
714.582	67.57
714.895	67.6
715.208	67.97
715.521	68.33
715.834	67.82
716.147	67.95
716.459	68.14
716.772	68.85
717.085	70.11
717.398	69.56
717.71	68.65
718.023	69.12
718.336	67.69
718.648	66.15
718.961	66.21
719.273	66.04
719.585	64.82
719.898	65.34
720.21	64.58
720.522	63.41
720.834	63.28
721.147	63.03
721.459	63.19
721.771	63.98
722.083	64.44
722.395	65.47
722.707	66.22
723.019	65.13
723.33	64.15
723.642	65.29
723.954	65.75
724.265	66.93
724.577	65.75
724.889	64.56
725.2	64.52
725.512	64.75
725.823	64.32
726.135	65.2
726.446	66.44
726.757	66.11
727.068	67.16
727.38	66.93
727.691	66.71
728.002	66.89
728.313	68.8
728.624	68.87
728.935	69.06
729.246	68.04
729.557	68.34
729.867	67.56
730.178	66.19
730.489	65.97
730.8	66.9
731.11	67.34
731.421	66.99
731.731	66.47
732.042	65.95
732.352	64.66
732.663	65.32
732.973	66.05
733.283	65.55
733.594	65.63
733.904	65.22
734.214	64.96
734.524	65.48
734.834	64.84
735.144	64.73
735.454	65.77
735.764	65.3
736.074	64.39
736.384	65.09
736.694	64.9
737.003	65.67
737.313	65.5
737.623	66.34
737.932	67.51
738.242	67.49
738.551	67.57
738.861	68.04
739.17	67.41
739.479	68.41
739.789	68.44
740.098	70.38
740.407	70.57
740.716	70.97
741.025	70.42
741.334	72.32
741.643	73.96
741.952	73.58
742.261	74.54
742.57	74.71
742.879	75.4
743.188	74.27
743.497	72.98
743.805	73.13
744.114	74.81
744.422	73.85
744.731	73.91
745.04	73.25
745.348	71.69
745.656	69.94
745.965	69.48
746.273	68.77
746.581	69.21
746.889	69.99
747.198	68.14
747.506	68.69
747.814	69.69
748.122	70.26
748.43	69.32
748.738	72.6
749.046	72.09
749.353	71.64
749.661	71.65
749.969	70.5
750.277	70.54
750.584	72.13
750.892	70.99
751.199	71.6
751.507	71.1
751.814	69.28
752.122	69.15
752.429	68.88
752.736	70.41
753.044	71.2
753.351	73
753.658	74.42
753.965	77.05
754.272	76.01
754.579	75.96
754.886	76.08
755.193	75.45
755.5	74.79
755.807	73.4
756.114	72.85
756.42	71.74
756.727	71.18
757.034	72.01
757.34	74.14
757.647	75.51
757.953	74.26
758.26	72.82
758.566	72.08
758.872	72.54
759.179	74.9
759.485	74.24
759.791	75.38
760.097	74.73
760.403	73.62
760.709	75.71
761.015	75.2
761.321	73.03
761.627	70.44
761.933	71.41
762.239	71.16
762.545	73.32
762.851	74.12
763.156	73.09
763.462	74.42
763.767	75.62
764.073	75.99
764.378	73.97
764.684	71.89
764.989	68.59
765.295	66.67
765.6	65.5
765.905	66.93
766.21	72.36
766.515	74.08
766.821	71.8
767.126	74.48
767.431	79.54
767.736	81.33
768.041	80.55
768.345	78.08
768.65	79.15
768.955	82.71
769.26	81.45
769.564	81.07
769.869	82.02
770.174	82.06
770.478	81.54
770.783	85.27
771.087	84.31
771.391	86.08
771.696	85.3
772	92.94
772.304	97.57
772.608	102.27
772.913	101.96
773.217	104.79
773.521	102.6
773.825	98.34
774.129	97.07
774.433	97.39
774.736	97.33
775.04	94.42
775.344	93.86
775.648	92.2
775.951	93.07
776.255	93.44
776.559	92.13
776.862	94.67
777.166	96.56
777.469	100.43
777.772	100.77
778.076	99.58
778.379	96.03
778.682	96.37
778.985	95.83
779.289	95.11
779.592	94.46
779.895	94.35
780.198	95.58
780.501	94.55
780.804	91.4
781.106	91.32
781.409	95.38
781.712	98.01
782.015	99.21
782.317	101.01
782.62	97.23
782.923	101.97
783.225	104.51
783.527	100.94
783.83	95.82
784.132	93.94
784.435	92.96
784.737	90.96
785.039	92.55
785.341	86.32
785.643	83.66
785.945	86.42
786.248	85.86
786.55	89.82
786.851	91
787.153	88.38
787.455	89.03
787.757	86.65
788.059	91.83
788.36	93.58
788.662	95.1
788.964	92.55
789.265	88.78
789.567	82.36
789.868	82.43
790.17	83.9
790.471	81.52
790.772	79.88
791.074	89.41
791.375	93.99
791.676	93.91
791.977	92.37
792.278	83.35
792.579	74.76
792.88	79.17
793.181	89.17
793.482	95.89
793.783	89.07
794.083	81.24
794.384	96.44
794.685	100.39
794.986	91.41
795.286	87.48
795.587	98.63
795.887	105.6
796.188	106.46
796.488	106.3
796.788	104.05
797.089	116.09
797.389	105.81
797.689	103.45
797.989	107.62
798.289	120.11
798.589	109.49
798.889	112.22
799.189	125.36
799.489	143.49
799.789	212.74
800.089	238.39
800.389	294.86
800.688	280.34
800.988	225.9
801.288	291.55
801.587	296.62
801.887	261.33
802.186	221.43
802.486	234.59
802.785	333.68
803.085	425.53
803.384	2019.73
803.683	-679.35
803.982	-1812
804.281	-1300
804.58	-1743.93
804.879	-3883.49
805.178	-1792.83
805.477	1040.81
805.776	495.53
806.075	378.75
806.374	272.46
806.673	192.35
806.971	183.25
807.27	138.5
807.569	118.99
807.867	100.92
808.166	102.79
808.464	89.81
808.763	91.41
809.061	85.94
809.359	77.3
809.658	72.84
809.956	70.46
810.254	79.45
810.552	62.43
810.85	64.68
811.148	63.66
811.446	71.38
811.744	74.19
812.042	68.05
812.34	49
812.638	58.15
812.935	55.72
813.233	72.94
813.531	62.98
813.828	74.55
814.126	102.41
814.423	106.82
814.721	112.92
815.018	145.24
815.316	123.44
815.613	143.05
815.91	202.81
816.207	202.29
816.504	281.17
816.802	303.6
817.099	341.51
817.396	220.34
817.693	178.38
817.99	215.3
818.286	195.44
818.583	216.57
818.88	302.5
819.177	268.75
819.473	207.32
819.77	276.79
820.067	192.45
820.363	182.71
820.66	168.17
820.956	170.96
821.252	176.52
821.549	198.17
821.845	206.59
822.141	238
822.437	218.84
822.734	227.69
823.03	216.47
823.326	183.7
823.622	185.68
823.918	162.03
824.213	156.17
824.509	133.46
824.805	158.71
825.101	181.09
825.397	161.04
825.692	182.39
825.988	186.91
826.283	139.94
826.579	137.66
826.874	234.59
827.17	189.11
827.465	286.89
827.76	430.08
828.056	591.35
828.351	1163.72
828.646	-905.25
828.941	730.34
829.236	420.89
829.531	387.75
829.826	562.53
830.121	-593.69
830.416	-279.67
830.711	-72.34
831.006	-123.86
831.3	-325.48
831.595	-247.44
831.89	-212.42
832.184	-479.49
832.479	-737.15
832.773	-554.79
833.068	-1684
833.362	-4368.85
833.656	2540
833.951	-682.46
834.245	331.68
834.539	1760.87
834.833	532.98
835.127	393.65
835.421	389.89
835.715	387.16
836.009	247.91
836.303	333.95
836.597	356.03
836.891	203.03
837.185	150.21
837.478	162.81
837.772	149.87
838.066	150.14
838.359	128.41
838.653	127.77
838.946	128.65
839.24	103.43
839.533	100.84
839.826	107.86
840.119	104.53
840.413	119.9
840.706	113.26
840.999	111.97
841.292	114.74
841.585	107.82
841.878	106.02
842.171	100.85
842.464	93.01
842.757	89.23
843.049	101.82
843.342	103.87
843.635	105.09
843.927	102.8
844.22	104.56
844.513	113.25
844.805	101.02
845.098	104.83
845.39	93.61
845.682	89.16
845.975	78.13
846.267	96.91
846.559	123.28
846.851	126.74
847.143	122.89
847.435	129.93
847.727	114.16
848.019	113.52
848.311	131.19
848.603	138.31
848.895	150.76
849.186	128.89
849.478	164.76
849.77	173.27
850.061	146.98
850.353	120.69
850.645	135.09
850.936	134.05
851.227	139.55
851.519	149.68
851.81	139.2
852.101	160.03
852.393	180.11
852.684	227.19
852.975	377.01
853.266	1396.23
853.557	971.13
853.848	980.85
854.139	923.98
854.43	1720.65
854.72	-5248.62
855.011	9088.06
855.302	1491.41
855.593	-2451.13
855.883	182700
856.174	804.03
856.464	2181.43
856.755	3196.41
857.045	560.5
857.336	2023.55
857.626	5407.07
857.916	1570.99
858.206	-549.18
858.497	-224.02
858.787	-148.73
859.077	-103.86
859.367	-146.01
859.657	-107.45
859.947	-76.99
860.237	-93.48
860.527	-1773.6
860.816	408.47
861.106	1360.12
861.396	401.93
861.685	61633.33
861.975	256.16
862.265	-341.49
862.554	-231.81
862.844	185.25
863.133	-947.71
863.422	-103.44
863.712	67.82
864.001	19.77
864.29	-36
864.579	-327.45
864.868	173.68
865.157	78.8
865.446	182.11
865.735	81.39
866.024	76.37
866.313	59.12
866.602	290
866.891	66.95
867.179	71.43
867.468	147.62
