Data from T1_Reflection__119__23-54-13-087.txt Node

Date: Wed Jun 02 23:54:13 CEST 2021
User: mabdelazizm
Spectrometer: FLMS18565
Trigger mode: 0
Integration Time (sec): 2.000000E0
Scans to average: 1
Electric dark correction enabled: true
Nonlinearity correction enabled: false
Boxcar width: 12
XAxis mode: Wavelengths
Number of Pixels in Spectrum: 2048
>>>>>Begin Spectral Data<<<<<
179.071	138.9
179.452	162.85
179.833	55.26
180.214	5.45
180.595	-900.93
180.977	-347.97
181.358	-198.56
181.739	-360.78
182.12	-121.67
182.501	-73.15
182.882	-9.15
183.262	-36.19
183.643	-17.43
184.024	8.37
184.405	8.45
184.786	17.81
185.166	8.49
185.547	12.49
185.927	5.46
186.308	6.59
186.689	8.24
187.069	8.77
187.449	3.84
187.83	2.99
188.21	1.09
188.59	-0.36
188.971	1.94
189.351	3.99
189.731	9.5
190.111	13.24
190.491	13.66
190.871	11.31
191.251	10.12
191.631	9.74
192.011	7.69
192.391	7.11
192.771	8.58
193.151	8.42
193.531	5.71
193.91	5.7
194.29	4.41
194.67	4.13
195.049	3.64
195.429	2.37
195.808	1.93
196.188	0.78
196.567	0.45
196.946	1.51
197.326	2.17
197.705	2.7
198.084	0.46
198.464	0.15
198.843	0.51
199.222	-1.68
199.601	-1.83
199.98	-2.74
200.359	-2.44
200.738	0.29
201.117	0.26
201.496	0.88
201.875	-0.49
202.254	-1.43
202.632	-1
203.011	0.41
203.39	0.6
203.768	0.48
204.147	1.94
204.525	1.69
204.904	3.53
205.282	3.68
205.661	2.86
206.039	3.94
206.418	3.66
206.796	3.92
207.174	3.9
207.552	6.19
207.931	5.97
208.309	6.14
208.687	6.13
209.065	7.17
209.443	7.65
209.821	8.5
210.199	6.51
210.577	5.65
210.954	5.45
211.332	6.4
211.71	6.4
212.088	5.82
212.465	5.81
212.843	5.15
213.221	5.77
213.598	5.93
213.976	5.49
214.353	4.72
214.731	4
215.108	5.34
215.485	4.06
215.863	4.31
216.24	4.21
216.617	4.28
216.994	3.59
217.371	3.97
217.749	3.84
218.126	3.96
218.503	2.96
218.88	2.23
219.256	1.97
219.633	1.79
220.01	2.65
220.387	3.03
220.764	2.4
221.14	2.37
221.517	2.91
221.894	2.45
222.27	3.28
222.647	3.44
223.023	2.69
223.4	2.84
223.776	3.52
224.153	3.43
224.529	2.94
224.905	3.89
225.282	3.5
225.658	3.15
226.034	2.98
226.41	3.14
226.786	3.01
227.162	2.82
227.538	2.99
227.914	3.18
228.29	3.18
228.666	2.92
229.042	2.96
229.418	2.72
229.793	2.5
230.169	2.8
230.545	2.59
230.92	2.58
231.296	2.58
231.672	2.43
232.047	1.99
232.422	2.06
232.798	1.81
233.173	1.5
233.549	1.58
233.924	1.43
234.299	1
234.674	1.16
235.05	1.19
235.425	1.12
235.8	0.98
236.175	0.91
236.55	0.96
236.925	0.86
237.3	0.83
237.675	0.83
238.049	0.89
238.424	0.94
238.799	1.06
239.174	1.15
239.548	1.03
239.923	1.08
240.297	0.98
240.672	1
241.046	0.89
241.421	0.95
241.795	0.94
242.17	1.06
242.544	1.03
242.918	0.96
243.293	1.04
243.667	1.1
244.041	1.01
244.415	1.01
244.789	0.99
245.163	1.04
245.537	1.08
245.911	1.01
246.285	1.06
246.659	1.06
247.033	1.09
247.406	1.14
247.78	1.08
248.154	0.99
248.528	0.93
248.901	0.99
249.275	0.99
249.648	0.98
250.022	0.96
250.395	1.01
250.769	1.05
251.142	1.06
251.515	1.01
251.888	0.99
252.262	1.05
252.635	1.01
253.008	1.02
253.381	0.98
253.754	0.97
254.127	1.05
254.5	1.01
254.873	0.91
255.246	0.9
255.619	0.86
255.992	0.79
256.364	0.8
256.737	0.78
257.11	0.81
257.483	0.81
257.855	0.81
258.228	0.77
258.6	0.76
258.973	0.83
259.345	0.9
259.718	0.84
260.09	0.84
260.462	0.82
260.834	0.84
261.207	0.86
261.579	0.86
261.951	0.86
262.323	0.83
262.695	0.8
263.067	0.86
263.439	0.82
263.811	0.81
264.183	0.83
264.555	0.81
264.927	0.83
265.298	0.84
265.67	0.84
266.042	0.82
266.413	0.8
266.785	0.8
267.156	0.75
267.528	0.69
267.899	0.65
268.271	0.59
268.642	0.53
269.013	0.56
269.385	0.57
269.756	0.61
270.127	0.57
270.498	0.58
270.87	0.54
271.241	0.53
271.612	0.49
271.983	0.54
272.354	0.52
272.724	0.54
273.095	0.57
273.466	0.58
273.837	0.61
274.208	0.52
274.578	0.47
274.949	0.45
275.32	0.45
275.69	0.41
276.061	0.42
276.431	0.48
276.802	0.45
277.172	0.52
277.542	0.53
277.913	0.54
278.283	0.52
278.653	0.45
279.023	0.43
279.394	0.43
279.764	0.39
280.134	0.39
280.504	0.42
280.874	0.46
281.244	0.4
281.614	0.34
281.983	0.3
282.353	0.28
282.723	0.36
283.093	0.36
283.462	0.38
283.832	0.42
284.202	0.39
284.571	0.36
284.941	0.33
285.31	0.35
285.68	0.34
286.049	0.42
286.418	0.37
286.788	0.42
287.157	0.35
287.526	0.37
287.895	0.42
288.264	0.44
288.633	0.43
289.002	0.48
289.371	0.43
289.74	0.41
290.109	0.38
290.478	0.41
290.847	0.43
291.216	0.41
291.585	0.39
291.953	0.33
292.322	0.32
292.691	0.33
293.059	0.32
293.428	0.28
293.796	0.33
294.165	0.36
294.533	0.31
294.901	0.29
295.27	0.26
295.638	0.25
296.006	0.16
296.374	0.21
296.743	0.18
297.111	0.23
297.479	0.16
297.847	0.18
298.215	0.14
298.583	0.16
298.95	0.14
299.318	0.16
299.686	0.13
300.054	0.16
300.422	0.14
300.789	0.18
301.157	0.19
301.525	0.21
301.892	0.22
302.26	0.26
302.627	0.28
302.994	0.25
303.362	0.23
303.729	0.27
304.097	0.27
304.464	0.22
304.831	0.21
305.198	0.18
305.565	0.17
305.932	0.19
306.299	0.16
306.666	0.18
307.033	0.14
307.4	0.18
307.767	0.16
308.134	0.22
308.501	0.22
308.867	0.23
309.234	0.21
309.601	0.26
309.967	0.22
310.334	0.26
310.701	0.19
311.067	0.18
311.433	0.16
311.8	0.21
312.166	0.23
312.533	0.35
312.899	0.33
313.265	0.37
313.631	0.39
313.997	0.45
314.363	0.45
314.729	0.47
315.096	0.42
315.461	0.4
315.827	0.41
316.193	0.46
316.559	0.43
316.925	0.46
317.291	0.44
317.656	0.45
318.022	0.5
318.388	0.46
318.753	0.41
319.119	0.39
319.484	0.34
319.85	0.38
320.215	0.36
320.581	0.33
320.946	0.26
321.311	0.21
321.676	0.05
322.042	0.01
322.407	-0.01
322.772	0.04
323.137	0.03
323.502	0.03
323.867	0.02
324.232	0.01
324.597	-0
324.962	0.05
325.327	0.01
325.691	0.03
326.056	0.07
326.421	0.1
326.785	0.09
327.15	0.02
327.514	0.09
327.879	0.09
328.243	0.09
328.608	0.13
328.972	0.17
329.337	0.24
329.701	0.27
330.065	0.34
330.429	0.36
330.794	0.36
331.158	0.44
331.522	0.39
331.886	0.37
332.25	0.23
332.614	0.25
332.978	0.27
333.342	0.36
333.705	0.34
334.069	0.22
334.433	0.27
334.797	0.24
335.16	0.2
335.524	0.09
335.887	0.05
336.251	0.12
336.614	0.11
336.978	0.13
337.341	0.15
337.705	0.12
338.068	0.17
338.431	0.14
338.794	0.15
339.158	0.1
339.521	0.06
339.884	0.1
340.247	0.04
340.61	0.08
340.973	0.06
341.336	0.17
341.699	0.2
342.062	0.09
342.424	0.05
342.787	0.07
343.15	0.12
343.512	0.06
343.875	0.06
344.238	0.02
344.6	0.09
344.963	0.14
345.325	0.05
345.688	0.02
346.05	0.03
346.412	0.01
346.775	0
347.137	-0.09
347.499	-0.12
347.861	-0.1
348.223	-0.05
348.585	-0.05
348.947	-0.02
349.309	-0.04
349.671	-0.05
350.033	-0.06
350.395	-0.08
350.757	-0.12
351.118	-0.03
351.48	-0.03
351.842	0.01
352.203	0.04
352.565	0.1
352.927	0.15
353.288	0.16
353.65	0.14
354.011	0.06
354.372	0.15
354.734	0.16
355.095	0.22
355.456	0.16
355.817	0.14
356.179	0.14
356.54	0.18
356.901	0.15
357.262	0.11
357.623	0.1
357.984	0.1
358.345	0.14
358.705	0.14
359.066	0.14
359.427	0.16
359.788	0.26
360.148	0.24
360.509	0.19
360.87	0.19
361.23	0.15
361.591	0.11
361.951	0.09
362.312	0.13
362.672	0.12
363.032	0.13
363.393	0.06
363.753	0.01
364.113	-0.1
364.473	-0.02
364.833	0.07
365.193	0.06
365.553	0.07
365.913	0.07
366.273	0.12
366.633	0.21
366.993	0.18
367.353	0.15
367.713	0.19
368.072	0.16
368.432	0.16
368.792	0.12
369.151	0.09
369.511	0.08
369.87	0.03
370.23	0.07
370.589	0.08
370.949	-0
371.308	0.03
371.667	-0
372.027	0.03
372.386	0.05
372.745	0.09
373.104	0.1
373.463	0.15
373.822	0.04
374.181	0.13
374.54	0.05
374.899	-0.05
375.258	-0.15
375.617	-0.16
375.975	-0.14
376.334	-0.1
376.693	-0.12
377.052	-0.07
377.41	-0.1
377.769	-0.08
378.127	-0.11
378.486	-0.08
378.844	-0.04
379.202	-0.05
379.561	-0.06
379.919	-0.03
380.277	-0.04
380.636	0.08
380.994	0.09
381.352	0.01
381.71	0.02
382.068	0.08
382.426	0.01
382.784	0.07
383.142	0.08
383.5	0.13
383.857	0.28
384.215	0.36
384.573	0.25
384.931	0.23
385.288	0.29
385.646	0.25
386.003	0.19
386.361	0.27
386.718	0.23
387.076	0.29
387.433	0.34
387.791	0.32
388.148	0.41
388.505	0.41
388.862	0.4
389.22	0.44
389.577	0.45
389.934	0.56
390.291	0.64
390.648	0.65
391.005	0.66
391.362	0.72
391.718	0.72
392.075	0.65
392.432	0.69
392.789	0.69
393.145	0.77
393.502	0.91
393.859	0.95
394.215	0.98
394.572	1.13
394.928	1.17
395.285	1.21
395.641	1.25
395.997	1.31
396.354	1.43
396.71	1.55
397.066	1.53
397.422	1.65
397.778	1.89
398.134	1.9
398.491	1.94
398.846	1.98
399.202	2.18
399.558	2.34
399.914	2.43
400.27	2.58
400.626	2.75
400.981	2.86
401.337	3
401.693	3.16
402.048	3.27
402.404	3.44
402.759	3.58
403.115	3.66
403.47	3.83
403.826	4.07
404.181	4.29
404.536	4.44
404.892	4.71
405.247	4.78
405.602	4.94
405.957	5.1
406.312	5.3
406.667	5.39
407.022	5.68
407.377	5.82
407.732	6.06
408.087	6.18
408.442	6.38
408.796	6.65
409.151	6.84
409.506	7.08
409.86	7.24
410.215	7.47
410.57	7.6
410.924	7.8
411.279	7.94
411.633	8.22
411.987	8.5
412.342	8.61
412.696	8.77
413.05	8.98
413.404	9.2
413.758	9.52
414.113	9.78
414.467	10.05
414.821	10.32
415.175	10.54
415.529	10.83
415.882	10.96
416.236	11.2
416.59	11.35
416.944	11.56
417.298	11.82
417.651	11.99
418.005	12.15
418.358	12.29
418.712	12.64
419.065	12.87
419.419	13.14
419.772	13.31
420.126	13.61
420.479	13.86
420.832	14.04
421.185	14.24
421.539	14.48
421.892	14.57
422.245	14.91
422.598	14.97
422.951	15.22
423.304	15.38
423.657	15.58
424.01	15.76
424.363	15.96
424.715	16.3
425.068	16.51
425.421	16.82
425.773	17.06
426.126	17.3
426.479	17.38
426.831	17.55
427.184	17.83
427.536	17.89
427.889	17.98
428.241	18.22
428.593	18.44
428.945	18.58
429.298	18.69
429.65	18.81
430.002	19.07
430.354	19.31
430.706	19.53
431.058	19.64
431.41	19.87
431.762	19.91
432.114	20.02
432.466	20.08
432.817	20.12
433.169	20.21
433.521	20.21
433.872	20.24
434.224	20.16
434.576	20.17
434.927	20.02
435.279	20.19
435.63	20.25
435.981	20.17
436.333	20.25
436.684	20.24
437.035	20.11
437.387	20.03
437.738	19.84
438.089	19.68
438.44	19.67
438.791	19.53
439.142	19.42
439.493	19.3
439.844	19.08
440.195	18.89
440.545	18.78
440.896	18.67
441.247	18.64
441.598	18.65
441.948	18.61
442.299	18.64
442.649	18.69
443	18.65
443.35	18.69
443.701	18.72
444.051	18.64
444.401	18.67
444.752	18.63
445.102	18.63
445.452	18.68
445.802	18.7
446.152	18.67
446.502	18.83
446.852	19.02
447.202	19.03
447.552	19.03
447.902	19.11
448.252	19.2
448.602	19.57
448.952	19.68
449.301	19.87
449.651	19.92
450.001	20.06
450.35	20.2
450.7	20.31
451.049	20.33
451.399	20.5
451.748	20.74
452.097	20.83
452.447	21.02
452.796	21.15
453.145	21.31
453.494	21.51
453.843	21.64
454.193	21.84
454.542	22
454.891	22.28
455.239	22.53
455.588	22.71
455.937	23.07
456.286	23.33
456.635	23.55
456.984	23.79
457.332	23.68
457.681	23.88
458.03	23.96
458.378	24.18
458.727	24.44
459.075	24.69
459.423	24.89
459.772	25.14
460.12	25.25
460.468	25.23
460.817	25.42
461.165	25.48
461.513	25.65
461.861	25.81
462.209	25.86
462.557	25.84
462.905	25.81
463.253	25.9
463.601	25.89
463.949	25.82
464.297	25.69
464.644	25.41
464.992	25.31
465.34	25.2
465.687	25.08
466.035	24.98
466.383	24.79
466.73	24.75
467.078	24.73
467.425	24.48
467.772	24.13
468.12	23.9
468.467	23.74
468.814	23.65
469.161	23.59
469.508	23.36
469.856	23.07
470.203	22.83
470.55	22.47
470.897	22.28
471.243	22.07
471.59	21.81
471.937	21.54
472.284	21.35
472.631	21.19
472.977	21.2
473.324	21.2
473.671	21.07
474.017	20.88
474.364	20.78
474.71	20.75
475.057	20.72
475.403	20.54
475.749	20.39
476.096	20.43
476.442	20.42
476.788	20.39
477.134	20.4
477.48	20.29
477.826	20.34
478.172	20.3
478.518	20.44
478.864	20.63
479.21	20.88
479.556	21.03
479.902	21.22
480.248	21.44
480.593	21.73
480.939	21.91
481.285	22.11
481.63	22.21
481.976	22.32
482.321	22.49
482.667	22.71
483.012	22.97
483.357	23.16
483.703	23.38
484.048	23.86
484.393	24.17
484.738	24.52
485.084	24.8
485.429	25.16
485.774	25.4
486.119	25.77
486.464	26.07
486.808	26.47
487.153	26.81
487.498	27.01
487.843	27.23
488.188	27.51
488.532	27.87
488.877	28.22
489.222	28.57
489.566	28.98
489.911	29.27
490.255	29.69
490.6	30.03
490.944	30.42
491.288	30.67
491.633	30.95
491.977	31.26
492.321	31.62
492.665	31.75
493.009	32.08
493.353	32.15
493.697	32.32
494.041	32.44
494.385	32.68
494.729	32.76
495.073	32.85
495.417	33.02
495.76	33.13
496.104	33.27
496.448	33.48
496.791	33.63
497.135	33.76
497.479	33.84
497.822	33.88
498.165	33.9
498.509	33.95
498.852	33.96
499.196	34.05
499.539	34.03
499.882	34.16
500.225	34.15
500.568	34.19
500.911	34.01
501.254	33.98
501.597	33.94
501.94	33.95
502.283	33.89
502.626	33.95
502.969	33.86
503.312	33.9
503.654	33.86
503.997	33.78
504.34	33.73
504.682	33.79
505.025	33.63
505.367	33.51
505.71	33.46
506.052	33.43
506.395	33.32
506.737	33.34
507.079	33.28
507.421	33.23
507.764	33.13
508.106	33.06
508.448	32.96
508.79	32.92
509.132	32.82
509.474	32.85
509.816	32.74
510.158	32.51
510.499	32.51
510.841	32.53
511.183	32.36
511.525	32.28
511.866	32.13
512.208	32.07
512.549	31.92
512.891	31.89
513.232	31.79
513.574	31.76
513.915	31.74
514.256	31.6
514.598	31.51
514.939	31.52
515.28	31.37
515.621	31.24
515.962	31.1
516.303	31.06
516.644	30.97
516.985	30.84
517.326	30.81
517.667	30.71
518.008	30.57
518.349	30.43
518.69	30.42
519.03	30.26
519.371	30.19
519.712	30.12
520.052	30.01
520.393	30.01
520.733	29.91
521.074	29.94
521.414	29.82
521.754	29.63
522.095	29.57
522.435	29.59
522.775	29.58
523.115	29.4
523.455	29.1
523.795	28.94
524.135	28.94
524.475	28.86
524.815	28.77
525.155	28.79
525.495	28.72
525.835	28.63
526.175	28.46
526.514	28.43
526.854	28.44
527.194	28.38
527.533	28.22
527.873	28.02
528.212	27.88
528.552	27.79
528.891	27.65
529.23	27.71
529.57	27.64
529.909	27.62
530.248	27.61
530.587	27.49
530.927	27.32
531.266	27.22
531.605	27.26
531.944	27.26
532.283	27.2
532.621	27.04
532.96	27.1
533.299	26.98
533.638	26.9
533.977	26.86
534.315	26.71
534.654	26.68
534.992	26.58
535.331	26.39
535.67	26.23
536.008	26.07
536.346	26.03
536.685	26
537.023	25.83
537.361	25.68
537.7	25.4
538.038	25.17
538.376	24.89
538.714	24.82
539.052	24.59
539.39	24.53
539.728	24.43
540.066	24.33
540.404	24.22
540.741	24.11
541.079	24.02
541.417	23.76
541.755	23.67
542.092	23.47
542.43	23.37
542.767	23.28
543.105	23.19
543.442	23.17
543.78	23.37
544.117	23.3
544.454	23.37
544.792	23.37
545.129	23.38
545.466	23.49
545.803	23.48
546.14	23.45
546.477	23.36
546.814	23.37
547.151	23.09
547.488	23.17
547.825	23.11
548.162	23.06
548.499	23.1
548.835	23
549.172	22.97
549.509	23.01
549.845	23.06
550.182	23.08
550.518	23.12
550.855	23.04
551.191	22.93
551.528	22.92
551.864	22.76
552.2	22.66
552.537	22.68
552.873	22.65
553.209	22.7
553.545	22.67
553.881	22.6
554.217	22.4
554.553	22.35
554.889	22.46
555.225	22.47
555.561	22.63
555.896	22.66
556.232	22.6
556.568	22.64
556.903	22.64
557.239	22.67
557.575	22.63
557.91	22.69
558.245	22.82
558.581	22.83
558.916	22.82
559.252	22.78
559.587	22.87
559.922	23
560.257	23.07
560.592	23.1
560.928	23.1
561.263	23.35
561.598	23.2
561.933	23.25
562.267	23.39
562.602	23.67
562.937	23.8
563.272	23.83
563.607	23.88
563.941	23.9
564.276	23.96
564.611	23.95
564.945	23.91
565.28	23.89
565.614	24.02
565.949	24.33
566.283	24.32
566.617	24.29
566.951	24.26
567.286	24.4
567.62	24.44
567.954	24.5
568.288	24.43
568.622	24.5
568.956	24.34
569.29	24.41
569.624	24.19
569.958	24.24
570.292	24.22
570.626	24.22
570.959	24.24
571.293	24.24
571.627	24.31
571.96	24.31
572.294	24.45
572.627	24.49
572.961	24.61
573.294	24.66
573.627	24.7
573.961	24.73
574.294	24.68
574.627	24.75
574.961	24.81
575.294	24.87
575.627	24.78
575.96	24.86
576.293	24.84
576.626	24.91
576.959	24.89
577.292	25.02
577.624	25.05
577.957	25.23
578.29	25.34
578.623	25.36
578.955	25.35
579.288	25.42
579.62	25.48
579.953	25.49
580.285	25.65
580.618	25.67
580.95	25.78
581.282	25.78
581.615	25.85
581.947	25.94
582.279	26.02
582.611	26.09
582.943	26.16
583.275	26.19
583.607	26.31
583.939	26.36
584.271	26.46
584.603	26.5
584.935	26.61
585.267	26.65
585.598	26.82
585.93	26.95
586.262	26.96
586.593	27.08
586.925	27.16
587.256	27.35
587.588	27.37
587.919	27.5
588.25	27.59
588.582	27.59
588.913	27.67
589.244	27.62
589.575	27.8
589.907	27.94
590.238	28.08
590.569	28.15
590.9	28.27
591.231	28.35
591.562	28.38
591.892	28.51
592.223	28.73
592.554	28.85
592.885	28.99
593.215	29.01
593.546	29.17
593.877	29.11
594.207	29.04
594.538	29.17
594.868	29.23
595.198	29.49
595.529	29.6
595.859	29.76
596.189	29.87
596.52	30.01
596.85	30.12
597.18	30.27
597.51	30.37
597.84	30.53
598.17	30.6
598.5	30.7
598.83	30.94
599.16	31.13
599.489	31.22
599.819	31.36
600.149	31.47
600.479	31.64
600.808	31.78
601.138	32.08
601.467	32.4
601.797	32.52
602.126	32.68
602.456	33.06
602.785	33.24
603.114	33.42
603.443	33.55
603.773	33.9
604.102	34.09
604.431	34.3
604.76	34.53
605.089	34.75
605.418	34.82
605.747	35.15
606.076	35.21
606.405	35.4
606.733	35.55
607.062	35.83
607.391	35.88
607.72	36.17
608.048	36.42
608.377	36.69
608.705	36.96
609.034	37.32
609.362	37.67
609.69	37.89
610.019	38.42
610.347	38.74
610.675	38.98
611.004	39.2
611.332	39.4
611.66	39.76
611.988	39.78
612.316	40.07
612.644	40.35
612.972	40.62
613.3	40.89
613.627	41.54
613.955	41.73
614.283	42.16
614.611	42.42
614.938	42.71
615.266	42.95
615.593	43.38
615.921	43.68
616.248	44.01
616.576	44.29
616.903	44.98
617.23	45.36
617.558	45.75
617.885	46.07
618.212	46.19
618.539	46.69
618.866	46.74
619.193	47.12
619.52	47.6
619.847	47.73
620.174	47.98
620.501	48.23
620.828	48.39
621.155	48.54
621.481	48.92
621.808	48.98
622.135	49.26
622.461	49.52
622.788	49.98
623.114	50.32
623.441	50.21
623.767	50.42
624.093	50.72
624.42	51.12
624.746	51.66
625.072	51.75
625.398	51.86
625.725	52
626.051	52.03
626.377	52.69
626.703	53.33
627.029	54.06
627.354	54.44
627.68	54.74
628.006	55.62
628.332	56.03
628.658	56.15
628.983	56.12
629.309	56.55
629.634	56.84
629.96	56.38
630.285	57.43
630.611	57.48
630.936	57.81
631.262	58.11
631.587	58.71
631.912	59.23
632.237	60.01
632.562	60.78
632.887	61.13
633.213	61.15
633.538	61.7
633.863	61.37
634.187	62.16
634.512	62.18
634.837	61.67
635.162	61.93
635.487	61.92
635.811	62.01
636.136	61.91
636.461	62.03
636.785	62.08
637.11	63.07
637.434	63.58
637.758	63.63
638.083	64.09
638.407	63.43
638.731	64.14
639.056	64.15
639.38	63.95
639.704	63.4
640.028	63.86
640.352	63.89
640.676	63.82
641	63.78
641.324	64.4
641.648	64.91
641.972	65.42
642.295	65.31
642.619	65.56
642.943	66.34
643.266	66.1
643.59	66.47
643.913	66.95
644.237	66.55
644.56	66.7
644.884	67.02
645.207	66.73
645.53	66.09
645.854	65.89
646.177	66.07
646.5	66.38
646.823	66.01
647.146	66.33
647.469	66.48
647.792	67.18
648.115	67.37
648.438	67.5
648.761	68.74
649.084	69.12
649.406	69.14
649.729	67.88
650.052	67.43
650.374	67.37
650.697	67.19
651.019	66.93
651.342	67.01
651.664	66.83
651.987	66.89
652.309	67.18
652.631	67.48
652.953	67.56
653.276	67.62
653.598	67.67
653.92	67.73
654.242	68
654.564	68.02
654.886	68.19
655.208	67.99
655.53	67.92
655.851	67.86
656.173	67.86
656.495	67.76
656.816	67.17
657.138	66.91
657.46	66.66
657.781	67.84
658.103	69.72
658.424	70.56
658.746	71.32
659.067	72.01
659.388	72.26
659.709	73.06
660.031	72.61
660.352	71.92
660.673	70.74
660.994	70.67
661.315	70.5
661.636	71.55
661.957	71.86
662.278	71.18
662.599	71.15
662.919	71.45
663.24	71.69
663.561	72.67
663.881	72.9
664.202	73.02
664.523	73.13
664.843	73
665.164	73.21
665.484	72.23
665.804	72.13
666.125	71.17
666.445	70.72
666.765	71.07
667.085	71.36
667.405	71.47
667.726	71.91
668.046	72.82
668.366	73.11
668.686	73.47
669.005	72.86
669.325	72.38
669.645	71.92
669.965	71.49
670.285	71.54
670.604	70.68
670.924	69.73
671.243	70.13
671.563	69.98
671.882	69.54
672.202	68.61
672.521	68.72
672.841	68.54
673.16	67.89
673.479	68.05
673.798	68.28
674.117	69.11
674.437	69.82
674.756	69.75
675.075	69.87
675.394	69.25
675.713	68.72
676.031	68.59
676.35	69.03
676.669	68.78
676.988	70.15
677.306	70.88
677.625	71.9
677.944	72.68
678.262	73.25
678.581	74.48
678.899	74.94
679.218	74.4
679.536	74.61
679.854	74.88
680.172	75.64
680.491	75.66
680.809	76.36
681.127	75.5
681.445	75.89
681.763	76.48
682.081	75.8
682.399	75.41
682.717	75.85
683.035	75.7
683.352	75.31
683.67	76.12
683.988	76.3
684.306	75
684.623	75.02
684.941	74.89
685.258	75.16
685.576	74.55
685.893	75.03
686.211	74.86
686.528	74.9
686.845	75.16
687.162	75.51
687.48	75.24
687.797	75.12
688.114	74.99
688.431	75.17
688.748	74.85
689.065	75.45
689.382	75.07
689.699	75.13
690.015	75.48
690.332	75.03
690.649	74.63
690.966	73.96
691.282	75.04
691.599	74.92
691.915	73.75
692.232	74.4
692.548	74.77
692.865	74.04
693.181	73.13
693.497	73.12
693.813	72.52
694.13	71.58
694.446	71.07
694.762	71.06
695.078	72.32
695.394	73.03
695.71	73.03
696.026	73.16
696.342	73.63
696.658	73.51
696.973	74.87
697.289	74.37
697.605	73.67
697.92	73.05
698.236	73.84
698.551	73.88
698.867	75.17
699.182	75.54
699.498	74.11
699.813	75.15
700.128	75.99
700.444	75.69
700.759	75.25
701.074	76.33
701.389	76.61
701.704	75.5
702.019	77.13
702.334	77.92
702.649	78.18
702.964	76.06
703.279	75.56
703.594	76.88
703.908	76.34
704.223	75.83
704.538	74.94
704.852	73.23
705.167	73.16
705.481	74.27
705.796	74.21
706.11	74.1
706.425	74.22
706.739	73.66
707.053	74.77
707.368	74.91
707.682	74.22
707.996	74.14
708.31	74.84
708.624	75.28
708.938	75.8
709.252	74.38
709.566	75.11
709.88	74.83
710.193	73.53
710.507	72.86
710.821	73.96
711.135	73.01
711.448	73
711.762	73.95
712.075	73.45
712.389	74.72
712.702	75.23
713.015	75.2
713.329	74.47
713.642	75.22
713.955	75.12
714.269	75.13
714.582	75.36
714.895	73.25
715.208	73.58
715.521	73.42
715.834	73.83
716.147	71.93
716.459	72.26
716.772	70.57
717.085	72.48
717.398	73.04
717.71	71.87
718.023	72.66
718.336	72.62
718.648	73.82
718.961	74.11
719.273	72.52
719.585	71.07
719.898	70.93
720.21	70.82
720.522	69.74
720.834	70.66
721.147	71.73
721.459	72
721.771	71.86
722.083	70.2
722.395	70.56
722.707	72.45
723.019	73.09
723.33	73.46
723.642	72.88
723.954	74.68
724.265	74.86
724.577	74.71
724.889	72.74
725.2	72.37
725.512	73.18
725.823	72.87
726.135	73.68
726.446	72.82
726.757	73.16
727.068	74.48
727.38	75.39
727.691	75.66
728.002	75.67
728.313	76.77
728.624	76.03
728.935	75.41
729.246	74.87
729.557	75.44
729.867	76.28
730.178	75.49
730.489	75.06
730.8	74.83
731.11	75.39
731.421	75.12
731.731	74.61
732.042	74.46
732.352	74.06
732.663	75.01
732.973	74.97
733.283	75.22
733.594	74.32
733.904	73.39
734.214	72.55
734.524	72.29
734.834	72.58
735.144	72.6
735.454	73.42
735.764	73.91
736.074	74.19
736.384	75.07
736.694	74.5
737.003	73.97
737.313	74
737.623	74.91
737.932	75.95
738.242	75.49
738.551	76.22
738.861	76.61
739.17	76.25
739.479	77.12
739.789	76.8
740.098	78.15
740.407	78.18
740.716	78.85
741.025	77.35
741.334	79.29
741.643	79.98
741.952	80.46
742.261	81.55
742.57	80.33
742.879	78.71
743.188	78
743.497	75.87
743.805	76.12
744.114	76.08
744.422	76.9
744.731	79.05
745.04	77.59
745.348	74.89
745.656	75.38
745.965	73.94
746.273	75.4
746.581	74.14
746.889	74.61
747.198	72.35
747.506	72.11
747.814	72.37
748.122	72.17
748.43	72.42
748.738	72.52
749.046	70.72
749.353	70.14
749.661	70.6
749.969	71.57
750.277	71.08
750.584	72.93
750.892	72.91
751.199	75.85
751.507	74.92
751.814	73.49
752.122	71.34
752.429	72.56
752.736	72.99
753.044	72.87
753.351	72.28
753.658	74.3
753.965	74.15
754.272	74.12
754.579	73.62
754.886	75.83
755.193	77.25
755.5	75.46
755.807	74.9
756.114	73.52
756.42	75.52
756.727	76.33
757.034	77.09
757.34	79.15
757.647	78.55
757.953	77.91
758.26	76.7
758.566	75.36
758.872	73.91
759.179	75.83
759.485	76.95
759.791	79.63
760.097	76.99
760.403	77.01
760.709	78.35
761.015	76.68
761.321	76.94
761.627	75.7
761.933	76.38
762.239	75.55
762.545	74.65
762.851	73.79
763.156	75.62
763.462	76.21
763.767	77.85
764.073	77.08
764.378	77.65
764.684	77.3
764.989	75.12
765.295	74.99
765.6	74.68
765.905	75.72
766.21	77.18
766.515	79.34
766.821	75.82
767.126	75.83
767.431	77.08
767.736	76.67
768.041	75.61
768.345	76.85
768.65	79
768.955	78.08
769.26	75.03
769.564	75.98
769.869	79.89
770.174	80.17
770.478	81.81
770.783	83.59
771.087	85.43
771.391	87.47
771.696	91.13
772	95.19
772.304	98.83
772.608	100.38
772.913	101.44
773.217	106.61
773.521	104.64
773.825	100.91
774.129	96.79
774.433	105.26
774.736	107.41
775.04	107.09
775.344	108.51
775.648	114.09
775.951	111.08
776.255	107.87
776.559	105.74
776.862	109.33
777.166	103.2
777.469	100.71
777.772	97.27
778.076	94.4
778.379	87.45
778.682	80.87
778.985	77.89
779.289	74.56
779.592	70.28
779.895	68.15
780.198	69.6
780.501	68.31
780.804	62.92
781.106	65.82
781.409	69.77
781.712	71.81
782.015	67.06
782.317	63.66
782.62	60.52
782.923	66.1
783.225	60.85
783.527	62.87
783.83	57.75
784.132	56.06
784.435	51.18
784.737	56.69
785.039	56.16
785.341	56.6
785.643	55.82
785.945	60.66
786.248	67.55
786.55	69.29
786.851	65.82
787.153	68.46
787.455	67.4
787.757	66.84
788.059	66.66
788.36	71.48
788.662	71.67
788.964	67.75
789.265	60.16
789.567	61.45
789.868	62.71
790.17	71.09
790.471	65.08
790.772	72.21
791.074	71.85
791.375	79.27
791.676	81.23
791.977	91.22
792.278	86.41
792.579	82.8
792.88	86.17
793.181	91
793.482	94.89
793.783	85.61
794.083	82.28
794.384	93.95
794.685	92.78
794.986	90.38
795.286	79.11
795.587	82.63
795.887	86.44
796.188	82.25
796.488	87.89
796.788	100.6
797.089	90.54
797.389	96.51
797.689	89.83
797.989	94.1
798.289	89.71
798.589	98.3
798.889	101.62
799.189	105.24
799.489	108.65
799.789	123.86
800.089	145.12
800.389	184.12
800.688	165.7
800.988	154.49
801.288	206.43
801.587	224.01
801.887	208.43
802.186	175.31
802.486	158.07
802.785	232.87
803.085	338.23
803.384	911.56
803.683	-277.08
803.982	-534.4
804.281	-302.26
804.58	-645.09
804.879	-891.74
805.178	-531.65
805.477	388.54
805.776	187.54
806.075	65.3
806.374	68.64
806.673	75.48
806.971	58.56
807.27	59.24
807.569	51.5
807.867	50.83
808.166	56.68
808.464	50.8
808.763	50.06
809.061	48.73
809.359	46.19
809.658	54.15
809.956	74.67
810.254	76.78
810.552	56.47
810.85	72.84
811.148	73.74
811.446	75.81
811.744	72.69
812.042	72.17
812.34	76.77
812.638	82.86
812.935	89.46
813.233	113.4
813.531	152.35
813.828	143.43
814.126	131.77
814.423	132.4
814.721	144.79
815.018	226.11
815.316	177.69
815.613	194.41
815.91	223.71
816.207	239.07
816.504	296.41
816.802	326.25
817.099	326.87
817.396	203.91
817.693	173.5
817.99	189.35
818.286	168.1
818.583	171.83
818.88	227.77
819.177	204.1
819.473	166.35
819.77	203.78
820.067	141.06
820.363	113.3
820.66	107.37
820.956	109.27
821.252	127.3
821.549	137.74
821.845	158.73
822.141	166.92
822.437	150.83
822.734	162.24
823.03	177.64
823.326	178.67
823.622	167.61
823.918	145.47
824.213	139.23
824.509	124.19
824.805	138.94
825.101	144.33
825.397	151.1
825.692	175.13
825.988	191.5
826.283	153.7
826.579	147.12
826.874	224.42
827.17	170.64
827.465	200.38
827.76	339.3
828.056	497.12
828.351	905.01
828.646	-675.07
828.941	664.83
829.236	352.59
829.531	321.02
829.826	442.57
830.121	-349.55
830.416	21.44
830.711	130.51
831.006	107.18
831.3	90.05
831.595	154.05
831.89	61.18
832.184	34.5
832.479	-99.6
832.773	-134.79
833.068	-355.2
833.362	-2511.48
833.656	1248.7
833.951	-245.61
834.245	157.85
834.539	622.61
834.833	338.33
835.127	230.64
835.421	182.64
835.715	150.97
836.009	99.35
836.303	71.85
836.597	82.49
836.891	97.68
837.185	63.7
837.478	82.29
837.772	89.35
838.066	99.79
838.359	94.76
838.653	99.37
838.946	101.94
839.24	82.65
839.533	70.43
839.826	65.49
840.119	63.23
840.413	78.89
840.706	53.15
840.999	67.12
841.292	73.68
841.585	65.8
841.878	67.75
842.171	59.87
842.464	45.5
842.757	62.7
843.049	62.59
843.342	59.03
843.635	61.77
843.927	57.51
844.22	56.4
844.513	54.09
844.805	46.89
845.098	33.86
845.39	37.77
845.682	27.16
845.975	18.1
846.267	21.4
846.559	16
846.851	34.15
847.143	25.52
847.435	26.55
847.727	22.16
848.019	19.15
848.311	9.01
848.603	-1.57
848.895	-4.31
849.186	-18.73
849.478	-23.06
849.77	-7.02
850.061	-41.78
850.353	-14.47
850.645	-14.33
850.936	-18.7
851.227	6.43
851.519	19.51
851.81	18.79
852.101	0.38
852.393	19.86
852.684	-3.76
852.975	9.27
853.266	-110.86
853.557	-128.23
853.848	-66.12
854.139	-44.31
854.43	-1.18
854.72	796.33
855.011	-1104.48
855.302	10.5
855.593	385.52
855.883	-21466.67
856.174	-23.93
856.464	321.82
856.755	449.23
857.045	149.15
857.336	424.71
857.626	787.88
857.916	43.94
858.206	78.8
858.497	67.67
858.787	72.05
859.077	55.63
859.367	43.87
859.657	40.71
859.947	26.69
860.237	74.36
860.527	246.4
860.816	5.27
861.106	-31.9
861.396	13.63
861.685	-3866.67
861.975	65.26
862.265	15.85
862.554	97.42
862.844	44.93
863.133	165.14
863.422	33.24
863.712	162.78
864.001	-3.77
864.29	312
864.579	776.47
864.868	-21.05
865.157	-204.61
865.446	391.58
865.735	177.62
866.024	220.17
866.313	159.12
866.602	710
866.891	319.33
867.179	187.76
867.468	1593.65
