Data from T1_Reflection__101__23-41-23-112.txt Node

Date: Wed Jun 02 23:41:23 CEST 2021
User: mabdelazizm
Spectrometer: FLMS18565
Trigger mode: 0
Integration Time (sec): 2.000000E0
Scans to average: 1
Electric dark correction enabled: true
Nonlinearity correction enabled: false
Boxcar width: 12
XAxis mode: Wavelengths
Number of Pixels in Spectrum: 2048
>>>>>Begin Spectral Data<<<<<
179.071	70.55
179.452	115.81
179.833	45.25
180.214	-49.09
180.595	-797.2
180.977	-563.41
181.358	-264.51
181.739	-582.35
182.12	-189.46
182.501	-83.66
182.882	26.77
183.262	-31.43
183.643	17.37
184.024	36.38
184.405	44.88
184.786	53.4
185.166	46.16
185.547	44.32
185.927	27.21
186.308	27.42
186.689	33.15
187.069	32.8
187.449	27.45
187.83	28.48
188.21	25.08
188.59	23.51
188.971	22.91
189.351	24.73
189.731	30.45
190.111	30.22
190.491	32.8
190.871	30.32
191.251	31.09
191.631	28.92
192.011	26.86
192.391	24.78
192.771	27.87
193.151	25.95
193.531	25.19
193.91	24.65
194.29	23.56
194.67	23.29
195.049	21.61
195.429	23.31
195.808	21.8
196.188	19.93
196.567	18.83
196.946	19.56
197.326	17.92
197.705	17.87
198.084	17.17
198.464	17.96
198.843	17.65
199.222	15.84
199.601	15.47
199.98	14.18
200.359	14.26
200.738	14.28
201.117	14.72
201.496	14.06
201.875	13.62
202.254	12.55
202.632	11.96
203.011	11.55
203.39	11.44
203.768	12.55
204.147	13.19
204.525	12.74
204.904	12.95
205.282	13.08
205.661	13.67
206.039	14.81
206.418	14.54
206.796	15.16
207.174	14.8
207.552	14.76
207.931	14.21
208.309	14.32
208.687	14.71
209.065	15.07
209.443	15.15
209.821	15.18
210.199	14.36
210.577	13.49
210.954	13.26
211.332	12.89
211.71	12.47
212.088	13.27
212.465	13.19
212.843	12.49
213.221	11.42
213.598	11.62
213.976	11.5
214.353	11.12
214.731	10.38
215.108	10.9
215.485	9.44
215.863	9.56
216.24	8.98
216.617	9.76
216.994	10.09
217.371	9.7
217.749	10.28
218.126	9.64
218.503	8.72
218.88	8.65
219.256	8.32
219.633	7.86
220.01	8.44
220.387	8.73
220.764	8.19
221.14	7.72
221.517	7.62
221.894	7.74
222.27	8.31
222.647	8.49
223.023	7.61
223.4	7.78
223.776	8.04
224.153	7.85
224.529	7.06
224.905	7.33
225.282	7.12
225.658	6.95
226.034	6.34
226.41	6.15
226.786	5.86
227.162	5.49
227.538	5.66
227.914	5.73
228.29	5.51
228.666	5.19
229.042	5.16
229.418	5.05
229.793	4.92
230.169	5.14
230.545	5.05
230.92	4.92
231.296	4.95
231.672	4.83
232.047	4.58
232.422	4.72
232.798	4.41
233.173	4.19
233.549	4.2
233.924	4.14
234.299	3.87
234.674	3.84
235.05	3.81
235.425	3.82
235.8	3.78
236.175	3.79
236.55	3.67
236.925	3.55
237.3	3.58
237.675	3.46
238.049	3.52
238.424	3.51
238.799	3.46
239.174	3.42
239.548	3.31
239.923	3.3
240.297	3.25
240.672	3.12
241.046	3.01
241.421	3.02
241.795	2.98
242.17	3.01
242.544	2.97
242.918	2.97
243.293	2.99
243.667	3.07
244.041	2.99
244.415	3
244.789	2.97
245.163	2.94
245.537	2.95
245.911	2.88
246.285	2.95
246.659	2.89
247.033	2.95
247.406	2.93
247.78	2.86
248.154	2.86
248.528	2.83
248.901	2.8
249.275	2.81
249.648	2.8
250.022	2.81
250.395	2.85
250.769	2.82
251.142	2.87
251.515	2.85
251.888	2.77
252.262	2.8
252.635	2.78
253.008	2.77
253.381	2.71
253.754	2.69
254.127	2.67
254.5	2.65
254.873	2.52
255.246	2.54
255.619	2.54
255.992	2.51
256.364	2.52
256.737	2.57
257.11	2.64
257.483	2.61
257.855	2.61
258.228	2.62
258.6	2.61
258.973	2.61
259.345	2.68
259.718	2.66
260.09	2.71
260.462	2.62
260.834	2.62
261.207	2.67
261.579	2.62
261.951	2.59
262.323	2.53
262.695	2.55
263.067	2.54
263.439	2.56
263.811	2.59
264.183	2.62
264.555	2.61
264.927	2.61
265.298	2.61
265.67	2.55
266.042	2.49
266.413	2.46
266.785	2.42
267.156	2.44
267.528	2.44
267.899	2.41
268.271	2.36
268.642	2.29
269.013	2.27
269.385	2.24
269.756	2.27
270.127	2.25
270.498	2.26
270.87	2.26
271.241	2.19
271.612	2.19
271.983	2.19
272.354	2.15
272.724	2.14
273.095	2.15
273.466	2.18
273.837	2.18
274.208	2.11
274.578	2.07
274.949	2.12
275.32	2.12
275.69	2.12
276.061	2.1
276.431	2.05
276.802	2
277.172	2.02
277.542	2.03
277.913	2.02
278.283	2
278.653	1.95
279.023	1.92
279.394	1.94
279.764	1.93
280.134	1.9
280.504	1.98
280.874	2
281.244	1.99
281.614	1.98
281.983	1.98
282.353	1.96
282.723	2.01
283.093	2.07
283.462	2.07
283.832	2.12
284.202	2.11
284.571	2.08
284.941	2.04
285.31	2.08
285.68	2.12
286.049	2.13
286.418	2.08
286.788	2.12
287.157	2.08
287.526	2.08
287.895	2.07
288.264	2.08
288.633	2.05
289.002	2.02
289.371	2.05
289.74	2.01
290.109	1.93
290.478	1.92
290.847	1.97
291.216	1.9
291.585	1.83
291.953	1.74
292.322	1.69
292.691	1.66
293.059	1.63
293.428	1.59
293.796	1.63
294.165	1.66
294.533	1.6
294.901	1.59
295.27	1.59
295.638	1.6
296.006	1.56
296.374	1.61
296.743	1.61
297.111	1.65
297.479	1.65
297.847	1.61
298.215	1.6
298.583	1.61
298.95	1.62
299.318	1.67
299.686	1.68
300.054	1.64
300.422	1.67
300.789	1.74
301.157	1.76
301.525	1.77
301.892	1.81
302.26	1.83
302.627	1.85
302.994	1.82
303.362	1.81
303.729	1.82
304.097	1.85
304.464	1.81
304.831	1.8
305.198	1.81
305.565	1.81
305.932	1.77
306.299	1.76
306.666	1.74
307.033	1.72
307.4	1.72
307.767	1.69
308.134	1.68
308.501	1.67
308.867	1.6
309.234	1.63
309.601	1.63
309.967	1.63
310.334	1.65
310.701	1.55
311.067	1.49
311.433	1.48
311.8	1.46
312.166	1.44
312.533	1.49
312.899	1.49
313.265	1.45
313.631	1.53
313.997	1.58
314.363	1.51
314.729	1.45
315.096	1.44
315.461	1.46
315.827	1.45
316.193	1.48
316.559	1.48
316.925	1.49
317.291	1.48
317.656	1.45
318.022	1.56
318.388	1.58
318.753	1.53
319.119	1.45
319.484	1.4
319.85	1.47
320.215	1.47
320.581	1.43
320.946	1.39
321.311	1.39
321.676	1.32
322.042	1.28
322.407	1.29
322.772	1.29
323.137	1.29
323.502	1.32
323.867	1.38
324.232	1.46
324.597	1.4
324.962	1.45
325.327	1.5
325.691	1.48
326.056	1.5
326.421	1.49
326.785	1.53
327.15	1.43
327.514	1.39
327.879	1.42
328.243	1.45
328.608	1.48
328.972	1.47
329.337	1.51
329.701	1.57
330.065	1.66
330.429	1.68
330.794	1.7
331.158	1.76
331.522	1.75
331.886	1.72
332.25	1.61
332.614	1.59
332.978	1.53
333.342	1.52
333.705	1.5
334.069	1.43
334.433	1.42
334.797	1.42
335.16	1.42
335.524	1.4
335.887	1.4
336.251	1.49
336.614	1.49
336.978	1.48
337.341	1.51
337.705	1.49
338.068	1.54
338.431	1.56
338.794	1.54
339.158	1.46
339.521	1.46
339.884	1.38
340.247	1.36
340.61	1.35
340.973	1.32
341.336	1.4
341.699	1.45
342.062	1.48
342.424	1.47
342.787	1.45
343.15	1.48
343.512	1.42
343.875	1.44
344.238	1.42
344.6	1.46
344.963	1.48
345.325	1.42
345.688	1.45
346.05	1.47
346.412	1.44
346.775	1.5
347.137	1.43
347.499	1.38
347.861	1.36
348.223	1.37
348.585	1.34
348.947	1.39
349.309	1.35
349.671	1.31
350.033	1.33
350.395	1.28
350.757	1.24
351.118	1.27
351.48	1.24
351.842	1.31
352.203	1.29
352.565	1.31
352.927	1.37
353.288	1.38
353.65	1.36
354.011	1.32
354.372	1.37
354.734	1.3
355.095	1.27
355.456	1.23
355.817	1.2
356.179	1.16
356.54	1.1
356.901	1.1
357.262	1.09
357.623	1.07
357.984	1.09
358.345	1.13
358.705	1.12
359.066	1.07
359.427	1.15
359.788	1.19
360.148	1.15
360.509	1.1
360.87	1.08
361.23	1.06
361.591	1.09
361.951	1.04
362.312	1.06
362.672	1
363.032	0.96
363.393	0.97
363.753	0.97
364.113	0.92
364.473	0.98
364.833	0.96
365.193	1.02
365.553	1.13
365.913	1.17
366.273	1.19
366.633	1.26
366.993	1.2
367.353	1.15
367.713	1.2
368.072	1.16
368.432	1.06
368.792	1.04
369.151	1.03
369.511	1.02
369.87	1.03
370.23	1.08
370.589	1.04
370.949	1.1
371.308	1.05
371.667	1.06
372.027	1.11
372.386	1.06
372.745	1.04
373.104	1.12
373.463	1.1
373.822	1.11
374.181	1.13
374.54	1.06
374.899	1
375.258	0.91
375.617	0.89
375.975	1.02
376.334	1.07
376.693	1.04
377.052	1.1
377.41	1.17
377.769	1.19
378.127	1.15
378.486	1.2
378.844	1.17
379.202	1.17
379.561	1.16
379.919	1.09
380.277	1.12
380.636	1.21
380.994	1.21
381.352	1.18
381.71	1.21
382.068	1.21
382.426	1.23
382.784	1.28
383.142	1.34
383.5	1.39
383.857	1.5
384.215	1.54
384.573	1.5
384.931	1.37
385.288	1.4
385.646	1.43
386.003	1.37
386.361	1.37
386.718	1.39
387.076	1.52
387.433	1.57
387.791	1.58
388.148	1.63
388.505	1.69
388.862	1.74
389.22	1.87
389.577	1.89
389.934	1.95
390.291	2
390.648	2.07
391.005	2.15
391.362	2.18
391.718	2.18
392.075	2.1
392.432	2.11
392.789	2.08
393.145	2.19
393.502	2.24
393.859	2.38
394.215	2.49
394.572	2.61
394.928	2.75
395.285	2.82
395.641	2.9
395.997	2.87
396.354	2.96
396.71	3.11
397.066	3.21
397.422	3.3
397.778	3.42
398.134	3.37
398.491	3.42
398.846	3.53
399.202	3.75
399.558	3.9
399.914	3.98
400.27	4.13
400.626	4.24
400.981	4.43
401.337	4.63
401.693	4.82
402.048	4.98
402.404	5.29
402.759	5.46
403.115	5.57
403.47	5.77
403.826	6.04
404.181	6.3
404.536	6.49
404.892	6.82
405.247	6.98
405.602	7.25
405.957	7.45
406.312	7.76
406.667	7.99
407.022	8.35
407.377	8.7
407.732	9.01
408.087	9.22
408.442	9.45
408.796	9.74
409.151	10.04
409.506	10.43
409.86	10.75
410.215	11.11
410.57	11.42
410.924	11.83
411.279	12.11
411.633	12.53
411.987	12.91
412.342	13.19
412.696	13.49
413.05	13.92
413.404	14.31
413.758	14.86
414.113	15.35
414.467	15.76
414.821	16.22
415.175	16.58
415.529	17.06
415.882	17.46
416.236	17.95
416.59	18.3
416.944	18.75
417.298	19.27
417.651	19.72
418.005	20.14
418.358	20.54
418.712	21.02
419.065	21.51
419.419	22.02
419.772	22.47
420.126	23.03
420.479	23.51
420.832	23.93
421.185	24.38
421.539	24.9
421.892	25.25
422.245	25.75
422.598	26.07
422.951	26.53
423.304	27
423.657	27.46
424.01	27.92
424.363	28.37
424.715	28.91
425.068	29.3
425.421	29.81
425.773	30.3
426.126	30.77
426.479	31.21
426.831	31.67
427.184	32.15
427.536	32.48
427.889	32.83
428.241	33.35
428.593	33.73
428.945	34.09
429.298	34.49
429.65	34.86
430.002	35.37
430.354	35.87
430.706	36.29
431.058	36.59
431.41	36.98
431.762	37.37
432.114	37.67
432.466	37.93
432.817	38.26
433.169	38.62
433.521	38.97
433.872	39.28
434.224	39.56
434.576	39.76
434.927	39.98
435.279	40.23
435.63	40.56
435.981	40.83
436.333	41.32
436.684	41.69
437.035	41.83
437.387	42.06
437.738	42.22
438.089	42.25
438.44	42.54
438.791	42.8
439.142	42.88
439.493	43.15
439.844	43.47
440.195	43.66
440.545	43.81
440.896	44
441.247	44.36
441.598	44.68
441.948	44.92
442.299	45.16
442.649	45.32
443	45.68
443.35	46.01
443.701	46.37
444.051	46.73
444.401	46.79
444.752	46.97
445.102	47.04
445.452	47.08
445.802	47.15
446.152	47.27
446.502	47.46
446.852	47.87
447.202	48
447.552	48.15
447.902	48.35
448.252	48.43
448.602	49.86
448.952	49.95
449.301	50.2
449.651	50.34
450.001	50.34
450.35	50.41
450.7	50.5
451.049	50.41
451.399	50.6
451.748	50.74
452.097	50.62
452.447	50.59
452.796	50.49
453.145	50.9
453.494	50.95
453.843	50.89
454.193	50.99
454.542	51.17
454.891	51.28
455.239	51.39
455.588	51.39
455.937	51.57
456.286	51.54
456.635	51.58
456.984	51.75
457.332	50.28
457.681	50.19
458.03	50.04
458.378	50.1
458.727	50.27
459.075	50.36
459.423	50.29
459.772	50.48
460.12	50.38
460.468	50.13
460.817	50.31
461.165	50.22
461.513	50.35
461.861	50.21
462.209	50.12
462.557	50.11
462.905	50.2
463.253	50.11
463.601	50.08
463.949	50.05
464.297	49.87
464.644	49.75
464.992	49.62
465.34	49.53
465.687	49.34
466.035	49.14
466.383	49.3
466.73	49.25
467.078	49.1
467.425	48.94
467.772	48.92
468.12	48.87
468.467	48.73
468.814	48.91
469.161	49.01
469.508	48.95
469.856	48.88
470.203	48.6
470.55	48.4
470.897	48.42
471.243	48.54
471.59	48.28
471.937	48.22
472.284	48.11
472.631	48.01
472.977	48
473.324	47.89
473.671	47.9
474.017	47.79
474.364	47.59
474.71	47.6
475.057	47.49
475.403	47.35
475.749	47.3
476.096	47.26
476.442	47.13
476.788	47.08
477.134	46.93
477.48	46.66
477.826	46.51
478.172	46.29
478.518	46.17
478.864	46.17
479.21	46.14
479.556	45.98
479.902	45.89
480.248	45.72
480.593	45.64
480.939	45.58
481.285	45.52
481.63	45.36
481.976	45.14
482.321	44.99
482.667	44.82
483.012	44.77
483.357	44.7
483.703	44.6
484.048	44.67
484.393	44.49
484.738	44.41
485.084	44.26
485.429	44.21
485.774	44.22
486.119	44.21
486.464	44.19
486.808	44.19
487.153	44.19
487.498	44.04
487.843	43.93
488.188	43.82
488.532	43.58
488.877	43.52
489.222	43.47
489.566	43.35
489.911	43.15
490.255	43.15
490.6	43.12
490.944	43.08
491.288	43.07
491.633	43.01
491.977	42.83
492.321	42.77
492.665	42.67
493.009	42.69
493.353	42.64
493.697	42.52
494.041	42.5
494.385	42.46
494.729	42.31
495.073	42.29
495.417	42.14
495.76	41.95
496.104	41.92
496.448	41.81
496.791	41.7
497.135	41.65
497.479	41.61
497.822	41.61
498.165	41.52
498.509	41.45
498.852	41.34
499.196	41.37
499.539	41.27
499.882	41.23
500.225	41.27
500.568	41.24
500.911	41.04
501.254	40.95
501.597	40.91
501.94	40.81
502.283	40.72
502.626	40.57
502.969	40.44
503.312	40.41
503.654	40.26
503.997	40.27
504.34	40.26
504.682	40.18
505.025	40.17
505.367	40.08
505.71	39.94
506.052	39.92
506.395	39.68
506.737	39.65
507.079	39.57
507.421	39.45
507.764	39.42
508.106	39.25
508.448	39.12
508.79	38.93
509.132	38.78
509.474	38.78
509.816	38.58
510.158	38.33
510.499	38.15
510.841	38.15
511.183	38.01
511.525	37.92
511.866	37.82
512.208	37.68
512.549	37.54
512.891	37.45
513.232	37.4
513.574	37.26
513.915	37.08
514.256	37.06
514.598	36.95
514.939	36.98
515.28	36.82
515.621	36.8
515.962	36.71
516.303	36.53
516.644	36.51
516.985	36.43
517.326	36.38
517.667	36.39
518.008	36.33
518.349	36.28
518.69	36.36
519.03	36.23
519.371	36.16
519.712	36.16
520.052	36.14
520.393	36.1
520.733	36.03
521.074	35.96
521.414	35.88
521.754	35.69
522.095	35.65
522.435	35.89
522.775	35.9
523.115	35.82
523.455	35.51
523.795	35.44
524.135	35.29
524.475	35.27
524.815	35.13
525.155	34.98
525.495	34.98
525.835	34.86
526.175	34.74
526.514	34.65
526.854	34.58
527.194	34.39
527.533	34.43
527.873	34.38
528.212	34.37
528.552	34.26
528.891	34.19
529.23	34.21
529.57	34.18
529.909	34.07
530.248	34.08
530.587	33.98
530.927	33.73
531.266	33.62
531.605	33.58
531.944	33.73
532.283	33.74
532.621	33.78
532.96	33.8
533.299	33.91
533.638	33.95
533.977	33.8
534.315	33.77
534.654	33.74
534.992	33.75
535.331	33.67
535.67	33.59
536.008	33.36
536.346	33.24
536.685	33
537.023	32.9
537.361	32.83
537.7	32.66
538.038	32.56
538.376	32.51
538.714	32.63
539.052	32.56
539.39	32.57
539.728	32.46
540.066	32.42
540.404	32.29
540.741	32.23
541.079	32.06
541.417	31.91
541.755	31.69
542.092	31.65
542.43	31.68
542.767	31.61
543.105	31.6
543.442	31.58
543.78	31.63
544.117	31.69
544.454	31.81
544.792	31.74
545.129	31.92
545.466	31.89
545.803	31.87
546.14	31.85
546.477	31.86
546.814	31.82
547.151	31.6
547.488	31.58
547.825	31.49
548.162	31.48
548.499	31.51
548.835	31.48
549.172	31.42
549.509	31.59
549.845	31.66
550.182	31.67
550.518	31.73
550.855	31.8
551.191	31.84
551.528	31.82
551.864	31.64
552.2	31.54
552.537	31.57
552.873	31.66
553.209	31.74
553.545	31.61
553.881	31.51
554.217	31.4
554.553	31.51
554.889	31.46
555.225	31.63
555.561	31.83
555.896	31.98
556.232	31.98
556.568	32.09
556.903	31.95
557.239	31.94
557.575	32.07
557.91	32.02
558.245	32.11
558.581	32.2
558.916	32.26
559.252	32.22
559.587	32.1
559.922	32.05
560.257	32.27
560.592	32.38
560.928	32.49
561.263	32.56
561.598	32.43
561.933	32.38
562.267	32.79
562.602	32.99
562.937	33.06
563.272	33.19
563.607	33.16
563.941	33.03
564.276	33.05
564.611	33.3
564.945	33.3
565.28	33.42
565.614	33.52
565.949	33.56
566.283	33.7
566.617	33.78
566.951	33.77
567.286	33.84
567.62	33.93
567.954	34.12
568.288	34.25
568.622	34.27
568.956	34.33
569.29	34.28
569.624	34.16
569.958	34.28
570.292	34.43
570.626	34.48
570.959	34.57
571.293	34.62
571.627	34.6
571.96	34.63
572.294	34.79
572.627	34.76
572.961	34.76
573.294	34.82
573.627	34.93
573.961	35.04
574.294	35.12
574.627	35.22
574.961	35.3
575.294	35.38
575.627	35.31
575.96	35.31
576.293	35.33
576.626	35.41
576.959	35.52
577.292	35.54
577.624	35.63
577.957	35.77
578.29	35.89
578.623	35.98
578.955	35.92
579.288	36
579.62	36.11
579.953	36.19
580.285	36.32
580.618	36.42
580.95	36.64
581.282	36.68
581.615	36.72
581.947	36.79
582.279	36.84
582.611	36.9
582.943	36.9
583.275	36.95
583.607	37.13
583.939	37.33
584.271	37.48
584.603	37.6
584.935	37.68
585.267	37.67
585.598	37.79
585.93	37.94
586.262	38
586.593	38.23
586.925	38.25
587.256	38.38
587.588	38.42
587.919	38.57
588.25	38.73
588.582	38.82
588.913	38.85
589.244	38.83
589.575	39.06
589.907	39.34
590.238	39.49
590.569	39.66
590.9	39.82
591.231	40.05
591.562	40.12
591.892	40.3
592.223	40.5
592.554	40.62
592.885	40.76
593.215	40.89
593.546	41.06
593.877	41.04
594.207	41.09
594.538	41.18
594.868	41.27
595.198	41.5
595.529	41.66
595.859	41.91
596.189	41.87
596.52	42
596.85	42.21
597.18	42.37
597.51	42.52
597.84	42.61
598.17	42.56
598.5	42.67
598.83	42.91
599.16	43.1
599.489	43.13
599.819	43.2
600.149	43.28
600.479	43.24
600.808	43.41
601.138	43.45
601.467	43.54
601.797	43.61
602.126	43.94
602.456	44.08
602.785	44.38
603.114	44.53
603.443	44.66
603.773	44.99
604.102	45.05
604.431	45.28
604.76	45.51
605.089	45.47
605.418	45.46
605.747	45.74
606.076	45.83
606.405	45.93
606.733	46.02
607.062	46.08
607.391	45.99
607.72	46.31
608.048	46.62
608.377	46.83
608.705	47.12
609.034	47.31
609.362	47.68
609.69	48.01
610.019	48.3
610.347	48.58
610.675	48.82
611.004	48.93
611.332	49.06
611.66	49.41
611.988	49.29
612.316	49.34
612.644	49.46
612.972	49.55
613.3	49.9
613.627	50.36
613.955	50.36
614.283	50.76
614.611	50.98
614.938	51.32
615.266	51.34
615.593	51.63
615.921	51.61
616.248	51.51
616.576	51.75
616.903	52.1
617.23	52.55
617.558	52.97
617.885	53.12
618.212	53.44
618.539	53.5
618.866	53.48
619.193	53.57
619.52	53.57
619.847	53.5
620.174	53.68
620.501	53.93
620.828	54.12
621.155	54.26
621.481	54.24
621.808	54.38
622.135	54.51
622.461	54.44
622.788	54.73
623.114	54.68
623.441	54.84
623.767	54.98
624.093	55.44
624.42	55.84
624.746	56.04
625.072	56.33
625.398	56.37
625.725	56.53
626.051	56.68
626.377	56.99
626.703	57.62
627.029	58.38
627.354	58.86
627.68	59.24
628.006	59.66
628.332	60.01
628.658	60.23
628.983	60.42
629.309	60.73
629.634	61.22
629.96	61.19
630.285	61.79
630.611	62.05
630.936	62.43
631.262	62.71
631.587	63.24
631.912	63.78
632.237	64.18
632.562	64.91
632.887	64.96
633.213	64.82
633.538	65.25
633.863	64.78
634.187	65.04
634.512	65.4
634.837	64.66
635.162	64.69
635.487	64.36
635.811	64.67
636.136	65.12
636.461	65.55
636.785	65.24
637.11	65.58
637.434	65.74
637.758	65.9
638.083	66.18
638.407	66.24
638.731	66.79
639.056	67.1
639.38	67.62
639.704	67.18
640.028	67.85
640.352	67.49
640.676	67.39
641	66.84
641.324	66.81
641.648	66.34
641.972	67.08
642.295	67.2
642.619	66.7
642.943	66.72
643.266	66.36
643.59	67.15
643.913	66.61
644.237	66.23
644.56	65.76
644.884	66.12
645.207	65.89
645.53	65.79
645.854	66.01
646.177	65.77
646.5	66.26
646.823	65.83
647.146	65.54
647.469	64.91
647.792	65.12
648.115	64.66
648.438	65.09
648.761	65.89
649.084	65.93
649.406	65.6
649.729	64.05
650.052	63.32
650.374	63.17
650.697	63
651.019	63
651.342	63.13
651.664	62.98
651.987	63.06
652.309	63.15
652.631	63.33
652.953	63.33
653.276	63.36
653.598	63.47
653.92	63.34
654.242	63.63
654.564	63.4
654.886	63.28
655.208	63.28
655.53	63.43
655.851	63.46
656.173	63.5
656.495	63.34
656.816	62.89
657.138	62.74
657.46	62.58
657.781	64.87
658.103	66.86
658.424	67.82
658.746	68.53
659.067	68.65
659.388	68.36
659.709	68.59
660.031	68.38
660.352	68.13
660.673	67.51
660.994	68.57
661.315	68.49
661.636	68.5
661.957	68.08
662.278	67.69
662.599	67.42
662.919	67.47
663.24	67.12
663.561	67.41
663.881	67.46
664.202	67.65
664.523	66.91
664.843	66
665.164	65.94
665.484	65.32
665.804	64.75
666.125	63.97
666.445	63.56
666.765	64.15
667.085	65.06
667.405	65.02
667.726	65.86
668.046	66.73
668.366	66.07
668.686	65.88
669.005	65.25
669.325	65.42
669.645	65.23
669.965	65.06
670.285	64.39
670.604	63.67
670.924	63.82
671.243	64.49
671.563	64.61
671.882	64.59
672.202	64.61
672.521	65.11
672.841	65.8
673.16	65.54
673.479	65.63
673.798	66.1
674.117	66.88
674.437	67.29
674.756	66.76
675.075	66.15
675.394	65.4
675.713	64.65
676.031	64.76
676.35	65.03
676.669	65.24
676.988	65.73
677.306	65.36
677.625	66.1
677.944	66.59
678.262	66.59
678.581	67.37
678.899	67.54
679.218	66.81
679.536	66.65
679.854	66.99
680.172	67.04
680.491	67.1
680.809	66.4
681.127	66.1
681.445	67.56
681.763	67.83
682.081	67.7
682.399	68.05
682.717	69.2
683.035	69.63
683.352	70.34
683.67	70.86
683.988	71.29
684.306	71.65
684.623	71.68
684.941	72.62
685.258	72.86
685.576	72.45
685.893	73.01
686.211	73.72
686.528	74.24
686.845	74.77
687.162	76.22
687.48	76.4
687.797	76.07
688.114	76.12
688.431	76.19
688.748	77.58
689.065	78.66
689.382	76.94
689.699	77.08
690.015	76.95
690.332	76.89
690.649	76.54
690.966	76.42
691.282	77.33
691.599	77.68
691.915	76.62
692.232	77.06
692.548	77.17
692.865	76.06
693.181	76.14
693.497	75.7
693.813	76.03
694.13	76.26
694.446	76.73
694.762	76.36
695.078	75.46
695.394	75.76
695.71	76.24
696.026	75.71
696.342	75.96
696.658	76.14
696.973	76.65
697.289	77.09
697.605	77.05
697.92	77.06
698.236	76.86
698.551	76.06
698.867	76.64
699.182	76.8
699.498	76.03
699.813	77.17
700.128	76.59
700.444	77.45
700.759	77.28
701.074	78.04
701.389	78.53
701.704	77.36
702.019	77.3
702.334	77.06
702.649	77.54
702.964	77.39
703.279	75.54
703.594	75.24
703.908	75.54
704.223	75.6
704.538	74.93
704.852	73.58
705.167	73.49
705.481	73.98
705.796	73.59
706.11	73.34
706.425	73.89
706.739	73.19
707.053	73.51
707.368	73.08
707.682	72.47
707.996	72.78
708.31	72.3
708.624	71.61
708.938	71.3
709.252	70.99
709.566	71.51
709.88	71.74
710.193	70.68
710.507	70.06
710.821	69.87
711.135	70.72
711.448	70.65
711.762	71.31
712.075	70.93
712.389	71.67
712.702	71.91
713.015	72.08
713.329	70.57
713.642	71.49
713.955	72.56
714.269	71.02
714.582	72.22
714.895	70.94
715.208	71.98
715.521	72.66
715.834	72.39
716.147	72.56
716.459	72.92
716.772	72.82
717.085	74.13
717.398	73.52
717.71	73.22
718.023	74.13
718.336	73.59
718.648	74.38
718.961	74.81
719.273	75.08
719.585	73.68
719.898	73.18
720.21	72.51
720.522	71.45
720.834	70.84
721.147	73.48
721.459	72.02
721.771	70.82
722.083	71.61
722.395	70.41
722.707	71.58
723.019	70.82
723.33	70.03
723.642	70.04
723.954	70.66
724.265	71.26
724.577	71.2
724.889	71.2
725.2	70.87
725.512	70.38
725.823	70.95
726.135	72.56
726.446	73.21
726.757	72.95
727.068	73.4
727.38	73.2
727.691	73.79
728.002	73.61
728.313	74.3
728.624	74.69
728.935	73.83
729.246	74.24
729.557	74.82
729.867	74.97
730.178	74.4
730.489	74.01
730.8	74.11
731.11	74.11
731.421	74.48
731.731	73.73
732.042	73.71
732.352	73.07
732.663	72.4
732.973	72.62
733.283	72.97
733.594	72.1
733.904	71.75
734.214	71.45
734.524	72.3
734.834	72.73
735.144	73.49
735.454	74.1
735.764	74.25
736.074	75.15
736.384	75.55
736.694	74.48
737.003	73.82
737.313	74.09
737.623	75.06
737.932	76.42
738.242	76.74
738.551	78.23
738.861	79.72
739.17	79.86
739.479	80.28
739.789	79.48
740.098	81.18
740.407	81.02
740.716	82.86
741.025	83.47
741.334	86.46
741.643	87.68
741.952	87.5
742.261	88.53
742.57	87.55
742.879	86.29
743.188	84.92
743.497	85.19
743.805	85.4
744.114	85.09
744.422	87.4
744.731	89.07
745.04	88.44
745.348	87.17
745.656	86.81
745.965	86.82
746.273	85.54
746.581	85.71
746.889	85.43
747.198	84.54
747.506	86.46
747.814	85.08
748.122	86.18
748.43	85.86
748.738	84.96
749.046	83.39
749.353	80.46
749.661	80.53
749.969	80.22
750.277	77.86
750.584	80.25
750.892	79.45
751.199	80.93
751.507	80.41
751.814	80.65
752.122	79.86
752.429	80.83
752.736	82.62
753.044	82.55
753.351	83.53
753.658	83.68
753.965	85.01
754.272	83.38
754.579	82.91
754.886	84.35
755.193	84.1
755.5	84.77
755.807	84.62
756.114	83.56
756.42	84.59
756.727	84.78
757.034	87.61
757.34	89.04
757.647	88.82
757.953	90.93
758.26	89.7
758.566	90.19
758.872	89.23
759.179	92.52
759.485	93.37
759.791	94.21
760.097	91.99
760.403	90.98
760.709	91.24
761.015	88.96
761.321	88.36
761.627	88.17
761.933	88.07
762.239	87.28
762.545	87.5
762.851	86.19
763.156	85.89
763.462	85.71
763.767	87.09
764.073	85.45
764.378	84
764.684	80.25
764.989	79.49
765.295	79.5
765.6	77.95
765.905	81.74
766.21	84.66
766.515	85
766.821	80.93
767.126	76.65
767.431	79.99
767.736	78.69
768.041	76.22
768.345	78.96
768.65	81.66
768.955	83
769.26	78.95
769.564	81.5
769.869	84.53
770.174	83.6
770.478	85.96
770.783	88.88
771.087	90.8
771.391	93.9
771.696	98.8
772	105.61
772.304	112.01
772.608	116.33
772.913	117.14
773.217	122.28
773.521	115.86
773.825	113.48
774.129	112.06
774.433	115.28
774.736	121.6
775.04	120.14
775.344	123.18
775.648	123.89
775.951	123.5
776.255	121.48
776.559	117.96
776.862	125.03
777.166	123.34
777.469	126.3
777.772	126.36
778.076	123.26
778.379	117.66
778.682	114.25
778.985	113.52
779.289	111.47
779.592	107.05
779.895	107.7
780.198	107.18
780.501	107.14
780.804	99.14
781.106	101.47
781.409	105.66
781.712	111.37
782.015	106.46
782.317	103.73
782.62	99.89
782.923	105.55
783.225	103.9
783.527	103.95
783.83	101.17
784.132	103.05
784.435	97.45
784.737	94.62
785.039	101.4
785.341	96.8
785.643	96.13
785.945	97.75
786.248	100.69
786.55	101.17
786.851	100
787.153	104.39
787.455	104.67
787.757	103.35
788.059	103.42
788.36	112.65
788.662	115.04
788.964	108.66
789.265	95.58
789.567	101.18
789.868	101.97
790.17	105.89
790.471	102.85
790.772	100.77
791.074	107.44
791.375	113.36
791.676	115.99
791.977	124.3
792.278	121.16
792.579	100.55
792.88	109.76
793.181	112.24
793.482	116.57
793.783	101
794.083	88.84
794.384	100.56
794.685	96.88
794.986	100.27
795.286	92.76
795.587	89.54
795.887	90.29
796.188	86.39
796.488	89.7
796.788	102.1
797.089	93.85
797.389	92.73
797.689	94.97
797.989	100.58
798.289	111.1
798.589	102.5
798.889	103.2
799.189	112.45
799.489	110.84
799.789	146.5
800.089	187.56
800.389	216.02
800.688	207.71
800.988	203.1
801.288	267.45
801.587	271.76
801.887	238.5
802.186	219.69
802.486	192.84
802.785	286.56
803.085	434.74
803.384	2233.33
803.683	-778.59
803.982	-2549.6
804.281	-1550.68
804.58	-2397.11
804.879	-4244.95
805.178	-1959.07
805.477	1245.58
805.776	594.48
806.075	430.76
806.374	302.26
806.673	231.84
806.971	254.2
807.27	174.92
807.569	149.96
807.867	152.09
808.166	161.7
808.464	151.26
808.763	150.87
809.061	156.07
809.359	151.09
809.658	140.25
809.956	158.98
810.254	177.81
810.552	149.78
810.85	146.25
811.148	139.19
811.446	134.35
811.744	133.11
812.042	130.72
812.34	110.55
812.638	125.98
812.935	127.22
813.233	169.13
813.531	184.52
813.828	178.06
814.126	201.55
814.423	180.54
814.721	236.85
815.018	319.66
815.316	227.59
815.613	224.52
815.91	256.18
816.207	258.78
816.504	333.55
816.802	358.12
817.099	393.51
817.396	273.42
817.693	213.48
817.99	252.56
818.286	220.09
818.583	229.98
818.88	337.13
819.177	298.95
819.473	228.75
819.77	323.65
820.067	229.47
820.363	204.25
820.66	189.85
820.956	195.21
821.252	214.75
821.549	246.5
821.845	274.34
822.141	284.86
822.437	261.19
822.734	285.06
823.03	306
823.326	275.73
823.622	286.44
823.918	260.81
824.213	260.85
824.509	236.08
824.805	283.24
825.101	318.21
825.397	312.63
825.692	403.28
825.988	478.13
826.283	361.81
826.579	319.58
826.874	531.2
827.17	412.01
827.465	568.81
827.76	840.02
828.056	1362.52
828.351	2478.76
828.646	-2108.92
828.941	1843.45
829.236	1095.56
829.531	1340.22
829.826	1660.98
830.121	-2090.99
830.416	-1165.8
830.711	-448.09
831.006	-597.27
831.3	-1148.17
831.595	-949.92
831.89	-784.71
832.184	-1477.62
832.479	-2341.11
832.773	-1521.92
833.068	-4213.6
833.362	-10234.43
833.656	5386.96
833.951	-1831.23
834.245	778.93
834.539	4329.57
834.833	1196.36
835.127	687.8
835.421	569.05
835.715	658.24
836.009	482.51
836.303	672.56
836.597	595.98
836.891	308.2
837.185	239.51
837.478	227.57
837.772	199.31
838.066	187.78
838.359	167.88
838.653	147.77
838.946	149.32
839.24	127.14
839.533	122.33
839.826	138.2
840.119	141.36
840.413	170.3
840.706	140.51
840.999	134.47
841.292	144.53
841.585	145.39
841.878	145.87
842.171	153.54
842.464	164.63
842.757	158.62
843.049	174.19
843.342	154.75
843.635	154.52
843.927	153.1
844.22	157.74
844.513	165.28
844.805	144.55
845.098	145.26
845.39	143.76
845.682	138.74
845.975	140.15
846.267	160.89
846.559	171.85
846.851	182.2
847.143	168.64
847.435	178.77
847.727	152.02
848.019	164.56
848.311	204.93
848.603	208.11
848.895	230.81
849.186	206.28
849.478	237.32
849.77	234.22
850.061	189.64
850.353	159.43
850.645	201.66
850.936	187.89
851.227	202.43
851.519	192.33
851.81	188.59
852.101	217.15
852.393	226.88
852.684	259.46
852.975	391.86
853.266	1391.35
853.557	1033.97
853.848	1079.38
854.139	913.35
854.43	1714.16
854.72	-4655.96
855.011	7335.82
855.302	1195.94
855.593	-1963.35
855.883	153166.67
856.174	678.27
856.464	1825.08
856.755	2865.13
857.045	569.55
857.336	2262.16
857.626	5853.54
857.916	1361.97
858.206	-564.49
858.497	-251.6
858.787	-175.2
859.077	-108.8
859.367	-217.6
859.657	-211.13
859.947	-184.22
860.237	-259.03
860.527	-3535.2
860.816	928.63
861.106	3093.87
861.396	875.11
861.685	198500
861.975	817.31
862.265	-1432.87
862.554	-1568.77
862.844	820.97
863.133	-5404.59
863.422	-1637.54
863.712	-1752.37
864.001	1154.61
864.29	-2868
864.579	-10849.02
864.868	4787.72
865.157	-2569.12
865.446	1489.47
865.735	610.72
866.024	729.39
866.313	517.95
866.602	2490
866.891	964.99
867.179	707.35
867.468	5153.97
