Data from T1_Reflection__64__23-05-21-180.txt Node

Date: Wed Jun 02 23:05:21 CEST 2021
User: mabdelazizm
Spectrometer: FLMS18565
Trigger mode: 0
Integration Time (sec): 2.000000E0
Scans to average: 1
Electric dark correction enabled: true
Nonlinearity correction enabled: false
Boxcar width: 12
XAxis mode: Wavelengths
Number of Pixels in Spectrum: 2048
>>>>>Begin Spectral Data<<<<<
179.071	85.89
179.452	30.04
179.833	26.87
180.214	-5.45
180.595	-123.36
180.977	-9.76
181.358	0.96
181.739	-70.59
182.12	-19.88
182.501	51.36
182.882	72.04
183.262	43.81
183.643	43.68
184.024	47.95
184.405	52.55
184.786	56.49
185.166	40.24
185.547	29.15
185.927	20.53
186.308	25.95
186.689	26.03
187.069	22.03
187.449	21.87
187.83	18.88
188.21	16.26
188.59	14.04
188.971	18.1
189.351	19.13
189.731	21.67
190.111	20.57
190.491	22.19
190.871	21
191.251	21.42
191.631	21.94
192.011	20.54
192.391	19.01
192.771	21.23
193.151	18.62
193.531	17.77
193.91	17.66
194.29	15.19
194.67	14.87
195.049	15.06
195.429	15.77
195.808	13.51
196.188	13.16
196.567	12.72
196.946	13.05
197.326	13.19
197.705	13.59
198.084	13.79
198.464	13.54
198.843	12.63
199.222	11.53
199.601	10.62
199.98	8.57
200.359	8.67
200.738	9.29
201.117	7.92
201.496	7.54
201.875	7.13
202.254	6.15
202.632	6.37
203.011	5.37
203.39	4.96
203.768	6.2
204.147	8
204.525	8
204.904	8.07
205.282	8.23
205.661	7.91
206.039	9.07
206.418	8.47
206.796	8.96
207.174	9.08
207.552	9.85
207.931	9.82
208.309	10.09
208.687	10.41
209.065	11.37
209.443	11.67
209.821	11.4
210.199	10.33
210.577	9.8
210.954	9.57
211.332	10.11
211.71	9.97
212.088	10.33
212.465	10.35
212.843	9.68
213.221	10.01
213.598	9.45
213.976	8.68
214.353	8.8
214.731	8.77
215.108	8.7
215.485	7.75
215.863	7.76
216.24	6.69
216.617	6.79
216.994	6.3
217.371	5.96
217.749	5.85
218.126	5.55
218.503	4.98
218.88	5.21
219.256	5.67
219.633	6.09
220.01	7.18
220.387	7.84
220.764	7.18
221.14	6.13
221.517	6
221.894	6.12
222.27	6.24
222.647	5.87
223.023	5.24
223.4	5.69
223.776	5.99
224.153	5.78
224.529	5.48
224.905	6.05
225.282	5.98
225.658	6.02
226.034	5.63
226.41	5.27
226.786	5.21
227.162	4.89
227.538	4.91
227.914	4.76
228.29	4.48
228.666	4.04
229.042	3.65
229.418	3.41
229.793	3.07
230.169	3.2
230.545	3.25
230.92	3.28
231.296	3.11
231.672	3.02
232.047	2.75
232.422	2.76
232.798	2.5
233.173	2.33
233.549	2.25
233.924	2.05
234.299	1.66
234.674	1.7
235.05	1.57
235.425	1.61
235.8	1.55
236.175	1.37
236.55	1.47
236.925	1.37
237.3	1.41
237.675	1.31
238.049	1.37
238.424	1.45
238.799	1.48
239.174	1.53
239.548	1.43
239.923	1.5
240.297	1.47
240.672	1.5
241.046	1.46
241.421	1.54
241.795	1.5
242.17	1.51
242.544	1.42
242.918	1.37
243.293	1.46
243.667	1.55
244.041	1.48
244.415	1.51
244.789	1.42
245.163	1.45
245.537	1.53
245.911	1.48
246.285	1.52
246.659	1.52
247.033	1.58
247.406	1.61
247.78	1.55
248.154	1.47
248.528	1.4
248.901	1.37
249.275	1.39
249.648	1.37
250.022	1.35
250.395	1.41
250.769	1.39
251.142	1.49
251.515	1.46
251.888	1.42
252.262	1.45
252.635	1.46
253.008	1.46
253.381	1.42
253.754	1.42
254.127	1.49
254.5	1.46
254.873	1.35
255.246	1.34
255.619	1.34
255.992	1.32
256.364	1.34
256.737	1.34
257.11	1.39
257.483	1.43
257.855	1.44
258.228	1.49
258.6	1.46
258.973	1.46
259.345	1.51
259.718	1.43
260.09	1.43
260.462	1.36
260.834	1.35
261.207	1.41
261.579	1.48
261.951	1.47
262.323	1.41
262.695	1.44
263.067	1.44
263.439	1.42
263.811	1.45
264.183	1.48
264.555	1.44
264.927	1.41
265.298	1.39
265.67	1.33
266.042	1.3
266.413	1.23
266.785	1.21
267.156	1.2
267.528	1.15
267.899	1.15
268.271	1.17
268.642	1.13
269.013	1.11
269.385	1.11
269.756	1.11
270.127	1.15
270.498	1.16
270.87	1.06
271.241	1.02
271.612	1.05
271.983	1.07
272.354	1.05
272.724	1.08
273.095	1.11
273.466	1.12
273.837	1.18
274.208	1.13
274.578	1.14
274.949	1.17
275.32	1.19
275.69	1.23
276.061	1.22
276.431	1.21
276.802	1.2
277.172	1.19
277.542	1.17
277.913	1.16
278.283	1.21
278.653	1.16
279.023	1.18
279.394	1.16
279.764	1.16
280.134	1.21
280.504	1.21
280.874	1.18
281.244	1.09
281.614	1.08
281.983	1.06
282.353	1.05
282.723	1.11
283.093	1.09
283.462	1.09
283.832	1.09
284.202	1.09
284.571	1.03
284.941	0.99
285.31	1
285.68	0.99
286.049	0.99
286.418	0.94
286.788	0.98
287.157	0.92
287.526	0.92
287.895	0.96
288.264	0.98
288.633	0.93
289.002	0.9
289.371	0.88
289.74	0.87
290.109	0.85
290.478	0.88
290.847	0.92
291.216	0.87
291.585	0.8
291.953	0.69
292.322	0.65
292.691	0.66
293.059	0.62
293.428	0.61
293.796	0.62
294.165	0.66
294.533	0.6
294.901	0.62
295.27	0.67
295.638	0.65
296.006	0.57
296.374	0.62
296.743	0.58
297.111	0.54
297.479	0.49
297.847	0.5
298.215	0.45
298.583	0.44
298.95	0.45
299.318	0.47
299.686	0.44
300.054	0.44
300.422	0.47
300.789	0.51
301.157	0.55
301.525	0.55
301.892	0.56
302.26	0.59
302.627	0.58
302.994	0.58
303.362	0.5
303.729	0.5
304.097	0.49
304.464	0.47
304.831	0.51
305.198	0.52
305.565	0.53
305.932	0.51
306.299	0.55
306.666	0.53
307.033	0.52
307.4	0.59
307.767	0.57
308.134	0.57
308.501	0.57
308.867	0.57
309.234	0.56
309.601	0.54
309.967	0.59
310.334	0.62
310.701	0.59
311.067	0.54
311.433	0.53
311.8	0.59
312.166	0.63
312.533	0.75
312.899	0.78
313.265	0.75
313.631	0.72
313.997	0.76
314.363	0.72
314.729	0.68
315.096	0.69
315.461	0.62
315.827	0.62
316.193	0.64
316.559	0.6
316.925	0.63
317.291	0.62
317.656	0.64
318.022	0.68
318.388	0.66
318.753	0.61
319.119	0.56
319.484	0.53
319.85	0.55
320.215	0.52
320.581	0.53
320.946	0.47
321.311	0.44
321.676	0.34
322.042	0.34
322.407	0.39
322.772	0.42
323.137	0.46
323.502	0.54
323.867	0.58
324.232	0.61
324.597	0.65
324.962	0.67
325.327	0.67
325.691	0.73
326.056	0.76
326.421	0.74
326.785	0.72
327.15	0.65
327.514	0.64
327.879	0.68
328.243	0.65
328.608	0.66
328.972	0.71
329.337	0.82
329.701	0.8
330.065	0.83
330.429	0.81
330.794	0.79
331.158	0.75
331.522	0.74
331.886	0.74
332.25	0.59
332.614	0.53
332.978	0.49
333.342	0.51
333.705	0.5
334.069	0.45
334.433	0.42
334.797	0.36
335.16	0.3
335.524	0.3
335.887	0.32
336.251	0.36
336.614	0.4
336.978	0.41
337.341	0.46
337.705	0.48
338.068	0.56
338.431	0.55
338.794	0.51
339.158	0.44
339.521	0.41
339.884	0.44
340.247	0.47
340.61	0.41
340.973	0.44
341.336	0.52
341.699	0.54
342.062	0.55
342.424	0.5
342.787	0.5
343.15	0.54
343.512	0.52
343.875	0.45
344.238	0.42
344.6	0.46
344.963	0.52
345.325	0.49
345.688	0.43
346.05	0.42
346.412	0.34
346.775	0.34
347.137	0.16
347.499	0.14
347.861	0.18
348.223	0.23
348.585	0.29
348.947	0.32
349.309	0.3
349.671	0.33
350.033	0.26
350.395	0.22
350.757	0.2
351.118	0.26
351.48	0.3
351.842	0.29
352.203	0.26
352.565	0.31
352.927	0.43
353.288	0.47
353.65	0.37
354.011	0.32
354.372	0.33
354.734	0.37
355.095	0.4
355.456	0.41
355.817	0.38
356.179	0.49
356.54	0.46
356.901	0.47
357.262	0.39
357.623	0.33
357.984	0.34
358.345	0.35
358.705	0.32
359.066	0.31
359.427	0.34
359.788	0.33
360.148	0.3
360.509	0.26
360.87	0.28
361.23	0.3
361.591	0.27
361.951	0.23
362.312	0.34
362.672	0.32
363.032	0.24
363.393	0.24
363.753	0.19
364.113	0.12
364.473	0.18
364.833	0.21
365.193	0.21
365.553	0.27
365.913	0.23
366.273	0.31
366.633	0.4
366.993	0.33
367.353	0.33
367.713	0.42
368.072	0.42
368.432	0.36
368.792	0.42
369.151	0.38
369.511	0.33
369.87	0.29
370.23	0.34
370.589	0.36
370.949	0.35
371.308	0.23
371.667	0.32
372.027	0.42
372.386	0.45
372.745	0.44
373.104	0.45
373.463	0.42
373.822	0.4
374.181	0.34
374.54	0.33
374.899	0.37
375.258	0.31
375.617	0.24
375.975	0.36
376.334	0.4
376.693	0.46
377.052	0.51
377.41	0.53
377.769	0.56
378.127	0.58
378.486	0.7
378.844	0.78
379.202	0.79
379.561	0.86
379.919	0.89
380.277	0.92
380.636	1.01
380.994	1.01
381.352	1.04
381.71	1.17
382.068	1.29
382.426	1.38
382.784	1.42
383.142	1.57
383.5	1.58
383.857	1.67
384.215	1.75
384.573	1.78
384.931	1.72
385.288	1.77
385.646	1.78
386.003	1.83
386.361	1.95
386.718	2.07
387.076	2.18
387.433	2.27
387.791	2.37
388.148	2.55
388.505	2.67
388.862	2.74
389.22	2.98
389.577	3.07
389.934	3.25
390.291	3.32
390.648	3.44
391.005	3.58
391.362	3.72
391.718	3.94
392.075	4.02
392.432	4.21
392.789	4.34
393.145	4.61
393.502	4.89
393.859	5.2
394.215	5.53
394.572	5.78
394.928	5.99
395.285	6.32
395.641	6.46
395.997	6.76
396.354	7.12
396.71	7.46
397.066	7.73
397.422	8.02
397.778	8.5
398.134	8.74
398.491	9.15
398.846	9.52
399.202	10.06
399.558	10.48
399.914	10.86
400.27	11.29
400.626	11.68
400.981	12.14
401.337	12.67
401.693	13.19
402.048	13.69
402.404	14.23
402.759	14.73
403.115	15.2
403.47	15.74
403.826	16.38
404.181	16.89
404.536	17.55
404.892	18.18
405.247	18.65
405.602	19.23
405.957	19.85
406.312	20.49
406.667	20.97
407.022	21.53
407.377	22.06
407.732	22.69
408.087	23.31
408.442	23.88
408.796	24.41
409.151	25.05
409.506	25.74
409.86	26.43
410.215	26.97
410.57	27.64
410.924	28.24
411.279	28.75
411.633	29.35
411.987	30.03
412.342	30.61
412.696	31.2
413.05	31.9
413.404	32.41
413.758	33.13
414.113	33.72
414.467	34.27
414.821	34.83
415.175	35.35
415.529	36.07
415.882	36.74
416.236	37.39
416.59	38.03
416.944	38.51
417.298	39.12
417.651	39.71
418.005	40.15
418.358	40.59
418.712	41.08
419.065	41.63
419.419	42.08
419.772	42.53
420.126	43.14
420.479	43.72
420.832	44.05
421.185	44.46
421.539	44.88
421.892	45.21
422.245	45.79
422.598	46.19
422.951	46.67
423.304	47.14
423.657	47.47
424.01	47.95
424.363	48.29
424.715	48.76
425.068	49.13
425.421	49.49
425.773	49.85
426.126	50.32
426.479	50.73
426.831	51.18
427.184	51.51
427.536	51.83
427.889	52.04
428.241	52.38
428.593	52.74
428.945	53.04
429.298	53.25
429.65	53.54
430.002	53.92
430.354	54.26
430.706	54.47
431.058	54.75
431.41	54.8
431.762	54.95
432.114	55.15
432.466	55.37
432.817	55.61
433.169	55.91
433.521	56.12
433.872	56.34
434.224	56.35
434.576	56.49
434.927	56.47
435.279	56.55
435.63	56.67
435.981	56.77
436.333	56.96
436.684	57.23
437.035	57.24
437.387	57.33
437.738	57.34
438.089	57.34
438.44	57.38
438.791	57.29
439.142	57.25
439.493	57.44
439.844	57.27
440.195	57.42
440.545	57.48
440.896	57.49
441.247	57.65
441.598	57.65
441.948	57.72
442.299	57.69
442.649	57.68
443	57.91
443.35	57.93
443.701	58.1
444.051	58.3
444.401	58.24
444.752	58.29
445.102	58.16
445.452	58.09
445.802	58.24
446.152	58.23
446.502	58.35
446.852	58.6
447.202	58.69
447.552	58.94
447.902	58.99
448.252	58.88
448.602	60.48
448.952	60.56
449.301	60.68
449.651	60.84
450.001	60.88
450.35	60.99
450.7	61.05
451.049	61.2
451.399	61.34
451.748	61.38
452.097	61.46
452.447	61.63
452.796	61.63
453.145	61.98
453.494	62.05
453.843	62.17
454.193	62.48
454.542	62.54
454.891	62.66
455.239	62.81
455.588	62.85
455.937	63.12
456.286	63.26
456.635	63.51
456.984	63.86
457.332	62.29
457.681	62.2
458.03	62.32
458.378	62.12
458.727	62.17
459.075	62.37
459.423	62.31
459.772	62.37
460.12	62.18
460.468	62.26
460.817	62.48
461.165	62.44
461.513	62.52
461.861	62.66
462.209	62.76
462.557	62.73
462.905	62.65
463.253	62.69
463.601	62.6
463.949	62.57
464.297	62.43
464.644	62.3
464.992	62.18
465.34	61.97
465.687	61.9
466.035	61.84
466.383	61.98
466.73	61.91
467.078	62.05
467.425	61.85
467.772	61.62
468.12	61.62
468.467	61.65
468.814	61.89
469.161	61.86
469.508	61.65
469.856	61.6
470.203	61.6
470.55	61.23
470.897	61.11
471.243	61.27
471.59	61.15
471.937	61.11
472.284	61.05
472.631	60.9
472.977	60.97
473.324	60.97
473.671	61.14
474.017	61.17
474.364	61.02
474.71	61.17
475.057	61.14
475.403	61.11
475.749	61.09
476.096	61.32
476.442	61.33
476.788	61.39
477.134	61.55
477.48	61.49
477.826	61.43
478.172	61.62
478.518	61.6
478.864	61.58
479.21	61.66
479.556	61.86
479.902	61.94
480.248	61.99
480.593	62.14
480.939	62.39
481.285	62.59
481.63	62.66
481.976	62.78
482.321	62.68
482.667	62.79
483.012	62.93
483.357	62.99
483.703	63.13
484.048	63.27
484.393	63.39
484.738	63.66
485.084	63.79
485.429	63.95
485.774	63.92
486.119	64.14
486.464	64.48
486.808	64.54
487.153	64.75
487.498	64.83
487.843	64.92
488.188	65.03
488.532	64.99
488.877	65.1
489.222	65.2
489.566	65.36
489.911	65.35
490.255	65.42
490.6	65.5
490.944	65.58
491.288	65.68
491.633	65.78
491.977	65.87
492.321	65.88
492.665	65.97
493.009	66.12
493.353	66.1
493.697	66.16
494.041	66.1
494.385	66.08
494.729	66.02
495.073	65.91
495.417	65.95
495.76	65.86
496.104	65.82
496.448	65.91
496.791	65.89
497.135	66.04
497.479	66.07
497.822	66.07
498.165	65.99
498.509	66.14
498.852	66.13
499.196	66.19
499.539	66.2
499.882	66.22
500.225	66.28
500.568	66.23
500.911	66.06
501.254	66
501.597	66.01
501.94	65.93
502.283	65.95
502.626	66.03
502.969	66.18
503.312	66.23
503.654	66.2
503.997	66.15
504.34	66.08
504.682	66.22
505.025	66.25
505.367	66.24
505.71	66.23
506.052	66.25
506.395	66.13
506.737	66.19
507.079	66.2
507.421	66.32
507.764	66.24
508.106	66.24
508.448	66.31
508.79	66.29
509.132	66.25
509.474	66.47
509.816	66.41
510.158	66.28
510.499	66.13
510.841	66.11
511.183	66.06
511.525	66.01
511.866	65.91
512.208	65.85
512.549	65.84
512.891	65.93
513.232	65.89
513.574	65.83
513.915	65.86
514.256	65.8
514.598	65.85
514.939	66.02
515.28	65.93
515.621	65.75
515.962	65.65
516.303	65.75
516.644	65.75
516.985	65.69
517.326	65.65
517.667	65.69
518.008	65.7
518.349	65.72
518.69	65.8
519.03	65.9
519.371	65.94
519.712	65.95
520.052	65.9
520.393	65.93
520.733	65.93
521.074	65.9
521.414	66.09
521.754	66.01
522.095	65.91
522.435	66.01
522.775	66.02
523.115	66
523.455	65.84
523.795	65.84
524.135	65.79
524.475	65.67
524.815	65.58
525.155	65.61
525.495	65.56
525.835	65.46
526.175	65.42
526.514	65.35
526.854	65.45
527.194	65.35
527.533	65.39
527.873	65.25
528.212	65.17
528.552	65.15
528.891	65.16
529.23	65.16
529.57	65.31
529.909	65.23
530.248	65.29
530.587	65.38
530.927	65.22
531.266	65.26
531.605	65.27
531.944	65.35
532.283	65.29
532.621	65.38
532.96	65.55
533.299	65.57
533.638	65.48
533.977	65.32
534.315	65.53
534.654	65.59
534.992	65.6
535.331	65.48
535.67	65.48
536.008	65.35
536.346	65.33
536.685	65.2
537.023	65.19
537.361	65.12
537.7	65
538.038	64.77
538.376	64.63
538.714	64.69
539.052	64.64
539.39	64.5
539.728	64.44
540.066	64.34
540.404	64.24
540.741	64.26
541.079	64.18
541.417	64.15
541.755	64.07
542.092	64.02
542.43	64.08
542.767	63.83
543.105	63.95
543.442	63.97
543.78	64.16
544.117	64.21
544.454	64.13
544.792	64.13
545.129	64.17
545.466	64.04
545.803	64
546.14	64.01
546.477	64.02
546.814	64.06
547.151	63.82
547.488	63.87
547.825	63.99
548.162	63.97
548.499	63.85
548.835	63.76
549.172	63.8
549.509	63.8
549.845	63.83
550.182	63.73
550.518	63.9
550.855	63.9
551.191	63.96
551.528	63.85
551.864	63.53
552.2	63.38
552.537	63.25
552.873	63.27
553.209	63.21
553.545	63.38
553.881	63.47
554.217	63.45
554.553	63.63
554.889	63.62
555.225	63.57
555.561	63.72
555.896	63.67
556.232	63.51
556.568	63.56
556.903	63.76
557.239	63.91
557.575	63.92
557.91	63.98
558.245	63.98
558.581	64.12
558.916	64.09
559.252	64.17
559.587	64.01
559.922	63.9
560.257	64.07
560.592	64
560.928	64.22
561.263	64.45
561.598	64.44
561.933	64.28
562.267	64.6
562.602	64.75
562.937	64.72
563.272	64.96
563.607	65.02
563.941	64.98
564.276	65.01
564.611	65.24
564.945	65.03
565.28	64.9
565.614	64.94
565.949	65.01
566.283	65.08
566.617	65.09
566.951	65.02
567.286	65.07
567.62	64.96
567.954	65.2
568.288	65.32
568.622	65.43
568.956	65.51
569.29	65.33
569.624	65.25
569.958	65.31
570.292	65.36
570.626	65.31
570.959	65.32
571.293	65.31
571.627	65.21
571.96	65.13
572.294	65.12
572.627	65.07
572.961	64.98
573.294	65.07
573.627	65.13
573.961	65.21
574.294	65.2
574.627	65.29
574.961	65.21
575.294	65.07
575.627	65.01
575.96	65.13
576.293	65.1
576.626	65.06
576.959	65.04
577.292	65
577.624	65.13
577.957	65.03
578.29	65.17
578.623	65.35
578.955	65.19
579.288	65.14
579.62	65.19
579.953	65.2
580.285	65.39
580.618	65.53
580.95	65.53
581.282	65.61
581.615	65.65
581.947	65.73
582.279	65.7
582.611	65.76
582.943	65.72
583.275	65.85
583.607	66.03
583.939	66.09
584.271	66.09
584.603	66.19
584.935	66.18
585.267	66.15
585.598	66.36
585.93	66.43
586.262	66.62
586.593	66.44
586.925	66.28
587.256	66.44
587.588	66.39
587.919	66.53
588.25	66.44
588.582	66.29
588.913	66.31
589.244	66.45
589.575	66.56
589.907	66.78
590.238	66.82
590.569	66.95
590.9	66.95
591.231	67.06
591.562	66.91
591.892	67.07
592.223	67.15
592.554	67.19
592.885	67.09
593.215	67.15
593.546	67.17
593.877	66.97
594.207	66.88
594.538	66.8
594.868	66.99
595.198	67.07
595.529	67.07
595.859	67.38
596.189	67.22
596.52	67.4
596.85	67.53
597.18	67.64
597.51	67.59
597.84	67.52
598.17	67.45
598.5	67.48
598.83	67.42
599.16	67.53
599.489	67.39
599.819	67.53
600.149	67.53
600.479	67.42
600.808	67.42
601.138	67.33
601.467	67.4
601.797	67.58
602.126	67.67
602.456	67.89
602.785	68.13
603.114	68.29
603.443	68.35
603.773	68.58
604.102	68.52
604.431	68.75
604.76	68.86
605.089	68.9
605.418	68.78
605.747	68.98
606.076	68.95
606.405	68.9
606.733	68.89
607.062	69
607.391	68.77
607.72	68.88
608.048	68.96
608.377	69.03
608.705	69.25
609.034	69.41
609.362	69.73
609.69	69.84
610.019	69.91
610.347	70.04
610.675	70
611.004	69.94
611.332	69.87
611.66	70.17
611.988	69.99
612.316	70.09
612.644	70.02
612.972	69.99
613.3	70.11
613.627	70.31
613.955	70.34
614.283	70.55
614.611	70.65
614.938	70.97
615.266	71.1
615.593	71.35
615.921	71.58
616.248	71.44
616.576	71.47
616.903	71.62
617.23	71.9
617.558	72.31
617.885	72.41
618.212	72.39
618.539	72.47
618.866	72.34
619.193	72.52
619.52	72.34
619.847	71.81
620.174	71.81
620.501	71.68
620.828	71.95
621.155	72.11
621.481	71.98
621.808	72.18
622.135	72.22
622.461	72.37
622.788	72.71
623.114	72.29
623.441	72.36
623.767	72.6
624.093	72.53
624.42	72.81
624.746	73.16
625.072	73.68
625.398	73.66
625.725	73.74
626.051	73.78
626.377	74.07
626.703	74.62
627.029	75.04
627.354	75.19
627.68	75.46
628.006	76.11
628.332	76.55
628.658	76.91
628.983	76.59
629.309	76.92
629.634	77.54
629.96	76.94
630.285	77.19
630.611	77.13
630.936	77.31
631.262	77.75
631.587	77.9
631.912	78.28
632.237	79.06
632.562	79.46
632.887	78.93
633.213	78.53
633.538	78.76
633.863	78.02
634.187	77.98
634.512	78.27
634.837	77.78
635.162	77.9
635.487	77.57
635.811	77.82
636.136	77.9
636.461	78.17
636.785	77.98
637.11	78.34
637.434	78.34
637.758	77.8
638.083	78.55
638.407	78.66
638.731	78.75
639.056	78.37
639.38	78.25
639.704	77.85
640.028	77.81
640.352	77.36
640.676	77.38
641	77.53
641.324	77.59
641.648	77.19
641.972	77.72
642.295	78.3
642.619	78.17
642.943	77.94
643.266	77.85
643.59	78.09
643.913	77.91
644.237	77.62
644.56	76.81
644.884	76.52
645.207	76.07
645.53	75.71
645.854	75.79
646.177	75.39
646.5	75.89
646.823	76.28
647.146	76.56
647.469	76.32
647.792	76.38
648.115	76.29
648.438	76.62
648.761	77.16
649.084	77.57
649.406	77.15
649.729	75.51
650.052	74.75
650.374	74.32
650.697	74.11
651.019	74.1
651.342	74.21
651.664	74.09
651.987	74.06
652.309	74.22
652.631	74.63
652.953	74.85
653.276	75.04
653.598	75.04
653.92	75.14
654.242	75.3
654.564	75.16
654.886	74.92
655.208	74.77
655.53	74.84
655.851	74.86
656.173	74.64
656.495	74.56
656.816	74.07
657.138	73.64
657.46	73.43
657.781	75.74
658.103	77.49
658.424	78.67
658.746	79.29
659.067	79.8
659.388	79.35
659.709	79.91
660.031	80.49
660.352	80.23
660.673	79.38
660.994	80.24
661.315	80.25
661.636	80.14
661.957	79.36
662.278	79.29
662.599	78.65
662.919	79.06
663.24	79.45
663.561	79.9
663.881	80.4
664.202	81.02
664.523	80.86
664.843	80.71
665.164	80.13
665.484	78.52
665.804	77.62
666.125	77.18
666.445	76.89
666.765	76.99
667.085	77.18
667.405	77.28
667.726	78.11
668.046	78.65
668.366	79.24
668.686	78.85
669.005	77.77
669.325	77.38
669.645	77.72
669.965	77.94
670.285	77.68
670.604	77.29
670.924	76.65
671.243	76.88
671.563	76.78
671.882	76.78
672.202	76.09
672.521	75.98
672.841	75.86
673.16	75.63
673.479	76.42
673.798	77.17
674.117	78.25
674.437	78.42
674.756	77.89
675.075	77.87
675.394	77.45
675.713	77.04
676.031	76.77
676.35	76.46
676.669	76.51
676.988	77.26
677.306	77.49
677.625	78.31
677.944	79.1
678.262	79.14
678.581	79.64
678.899	80.13
679.218	79.55
679.536	79.48
679.854	78.79
680.172	79.53
680.491	79.49
680.809	80.04
681.127	79.88
681.445	80.35
681.763	80.08
682.081	79.03
682.399	78.64
682.717	79.46
683.035	79.23
683.352	78.91
683.67	78.52
683.988	78.83
684.306	78.79
684.623	78.69
684.941	78.67
685.258	78.25
685.576	77.43
685.893	77.32
686.211	77.53
686.528	78.31
686.845	78.54
687.162	78.58
687.48	79
687.797	79.42
688.114	79.19
688.431	78.53
688.748	78.71
689.065	79.31
689.382	78.01
689.699	78.64
690.015	78.72
690.332	79.11
690.649	78.78
690.966	78.32
691.282	79.47
691.599	79.7
691.915	78.9
692.232	78.97
692.548	79.82
692.865	79.79
693.181	80.01
693.497	80.53
693.813	79.86
694.13	79.6
694.446	79.79
694.762	79.93
695.078	80.13
695.394	79.68
695.71	79.86
696.026	79.6
696.342	80.19
696.658	79.68
696.973	80.28
697.289	80.21
697.605	79.03
697.92	79.04
698.236	79.6
698.551	79.65
698.867	80.75
699.182	81.5
699.498	81.8
699.813	82.45
700.128	82.11
700.444	82.01
700.759	80.77
701.074	80.77
701.389	81.42
701.704	81
702.019	81.13
702.334	80.85
702.649	81.06
702.964	80.65
703.279	80.38
703.594	80.48
703.908	81.13
704.223	82
704.538	81.44
704.852	80.96
705.167	81.22
705.481	82.75
705.796	83.33
706.11	82.67
706.425	82.68
706.739	82.06
707.053	82.13
707.368	81.11
707.682	80.72
707.996	80.62
708.31	79.81
708.624	79.95
708.938	80.7
709.252	79.21
709.566	79.96
709.88	80.21
710.193	79.13
710.507	78.1
710.821	78.89
711.135	79.3
711.448	78.96
711.762	79.63
712.075	79.49
712.389	80.86
712.702	80.03
713.015	79.97
713.329	78.89
713.642	78.09
713.955	79.1
714.269	78.48
714.582	79.2
714.895	77.33
715.208	79.42
715.521	79.7
715.834	79.7
716.147	79.56
716.459	78.5
716.772	78.11
717.085	79.98
717.398	79.58
717.71	79.45
718.023	80.36
718.336	81.65
718.648	81.07
718.961	80.92
719.273	80.96
719.585	79.09
719.898	78.29
720.21	78.13
720.522	78.6
720.834	78.8
721.147	81.33
721.459	82.81
721.771	82.74
722.083	83.22
722.395	82.91
722.707	84.53
723.019	83.15
723.33	81.17
723.642	82.22
723.954	83.57
724.265	84.87
724.577	83.57
724.889	81.73
725.2	81.76
725.512	81.54
725.823	81.07
726.135	79.52
726.446	79.98
726.757	80.03
727.068	80.76
727.38	81.49
727.691	80.9
728.002	81.43
728.313	82.92
728.624	83.28
728.935	82.29
729.246	81.38
729.557	80.87
729.867	81.04
730.178	80.66
730.489	80.99
730.8	81.19
731.11	82.27
731.421	82.33
731.731	81.94
732.042	82
732.352	81.48
732.663	81.69
732.973	82.6
733.283	82.52
733.594	82.96
733.904	82.83
734.214	82.67
734.524	81.93
734.834	82.64
735.144	83.22
735.454	84.51
735.764	83.6
736.074	81.8
736.384	80.35
736.694	79.39
737.003	80.01
737.313	80.66
737.623	80.94
737.932	81.61
738.242	80.85
738.551	81.22
738.861	81.85
739.17	81.06
739.479	82.13
739.789	81.91
740.098	84.7
740.407	83.69
740.716	82.84
741.025	82.64
741.334	84.02
741.643	85.69
741.952	84.93
742.261	87.35
742.57	86.39
742.879	85.77
743.188	83.41
743.497	82.58
743.805	85
744.114	88.71
744.422	88.44
744.731	87.64
745.04	86.26
745.348	84.35
745.656	83.81
745.965	83.68
746.273	84.25
746.581	84.15
746.889	83.75
747.198	80.93
747.506	80.7
747.814	78.63
748.122	80.78
748.43	79.38
748.738	80.62
749.046	78.31
749.353	78.85
749.661	79.72
749.969	78.93
750.277	77.71
750.584	78.78
750.892	80.64
751.199	82.32
751.507	81.7
751.814	80.89
752.122	82.69
752.429	84.85
752.736	86.61
753.044	86.53
753.351	87.47
753.658	87.75
753.965	88.43
754.272	87.82
754.579	87.15
754.886	89.11
755.193	89.73
755.5	89.93
755.807	88.44
756.114	88.64
756.42	87.24
756.727	86.88
757.034	86.77
757.34	88.71
757.647	89.55
757.953	89.51
758.26	88.63
758.566	88.31
758.872	87.03
759.179	87.45
759.485	87.92
759.791	88.58
760.097	87.48
760.403	86.41
760.709	88.35
761.015	86.4
761.321	86.64
761.627	85.83
761.933	86.57
762.239	88.38
762.545	89.72
762.851	91.34
763.156	92.75
763.462	93.66
763.767	96.11
764.073	96.69
764.378	96.85
764.684	96.43
764.989	95.12
765.295	94.85
765.6	95.84
765.905	94.95
766.21	95.31
766.515	97.79
766.821	95.27
767.126	91.66
767.431	91.19
767.736	89.43
768.041	86.18
768.345	85.3
768.65	87.55
768.955	87.54
769.26	85.81
769.564	84.64
769.869	83.7
770.174	83.06
770.478	84.04
770.783	87.06
771.087	89.01
771.391	88.16
771.696	91.93
772	98.05
772.304	102.01
772.608	101.12
772.913	104.96
773.217	107.13
773.521	105.81
773.825	105.47
774.129	104.25
774.433	108.44
774.736	113.07
775.04	114.7
775.344	112.67
775.648	118.61
775.951	122.1
776.255	121.79
776.559	121.34
776.862	122.22
777.166	125.33
777.469	128.02
777.772	124
778.076	116.27
778.379	107.29
778.682	106.16
778.985	107.6
779.289	104.45
779.592	101.64
779.895	101.85
780.198	101.58
780.501	97.53
780.804	92.29
781.106	94.07
781.409	96.96
781.712	100.07
782.015	100.19
782.317	99.71
782.62	97.25
782.923	105.61
783.225	106.71
783.527	101.08
783.83	95.26
784.132	95.61
784.435	92.4
784.737	85.49
785.039	89.65
785.341	88.63
785.643	92.1
785.945	98.71
786.248	98.45
786.55	96.54
786.851	97.05
787.153	100.07
787.455	99.81
787.757	103.96
788.059	106.79
788.36	118.45
788.662	126.86
788.964	124.43
789.265	114.26
789.567	109.81
789.868	106.42
790.17	104.62
790.471	100.72
790.772	101.63
791.074	112.78
791.375	125.26
791.676	122.64
791.977	134.09
792.278	136.79
792.579	123.23
792.88	124.8
793.181	131.74
793.482	141.44
793.783	142.23
794.083	140.32
794.384	158.32
794.685	153.26
794.986	146.87
795.286	134
795.587	130.29
795.887	126.38
796.188	124.37
796.488	128.86
796.788	143.24
797.089	150.85
797.389	154.41
797.689	165.21
797.989	177.87
798.289	184.26
798.589	167.95
798.889	168.84
799.189	181.62
799.489	194.93
799.789	251.88
800.089	298.82
800.389	355.94
800.688	345.75
800.988	281.43
801.288	331.64
801.587	344.16
801.887	322.65
802.186	287.65
802.486	282.55
802.785	441.46
803.085	698.88
803.384	3219.05
803.683	-1038.79
803.982	-3222.4
804.281	-1989.14
804.58	-2633.53
804.879	-4722.94
805.178	-2334.18
805.477	1324.11
805.776	674.5
806.075	477.44
806.374	350.94
806.673	312.63
806.971	317.76
807.27	242.39
807.569	179.27
807.867	170.82
808.166	177.43
808.464	183.54
808.763	182.33
809.061	175.72
809.359	175.38
809.658	179.66
809.956	196.01
810.254	237.01
810.552	205.42
810.85	192.02
811.148	175.2
811.446	177.32
811.744	175.13
812.042	176.16
812.34	166.48
812.638	170.48
812.935	167.9
813.233	206.75
813.531	256.96
813.828	244.97
814.126	228.91
814.423	201.72
814.721	241.21
815.018	340.93
815.316	256.95
815.613	250.18
815.91	259.91
816.207	269.24
816.504	339.73
816.802	351.43
817.099	363.43
817.396	238.22
817.693	186.15
817.99	200.2
818.286	186.22
818.583	207.02
818.88	303.48
819.177	284.14
819.473	239.06
819.77	317.01
820.067	221.6
820.363	214.18
820.66	196.8
820.956	193.85
821.252	214.13
821.549	247.25
821.845	263.13
822.141	306.42
822.437	288.19
822.734	307.47
823.03	311.96
823.326	301.63
823.622	303.84
823.918	275.83
824.213	266.48
824.509	242.4
824.805	301.76
825.101	325.08
825.397	313.5
825.692	380.77
825.988	427.39
826.283	298.88
826.579	258.99
826.874	372.46
827.17	304.26
827.465	409.07
827.76	637.04
828.056	994.84
828.351	1839.53
828.646	-1430.97
828.941	1319.54
829.236	845.63
829.531	920.66
829.826	1194.68
830.121	-1589.19
830.416	-759.33
830.711	-262.65
831.006	-355.51
831.3	-666.67
831.595	-433.06
831.89	-327.84
832.184	-715.15
832.479	-1294.86
832.773	-928.22
833.068	-3081.6
833.362	-8308.2
833.656	4253.91
833.951	-1424.56
834.245	637.62
834.539	2834.78
834.833	903.64
835.127	493.65
835.421	419.61
835.715	528.66
836.009	407.44
836.303	569.73
836.597	414.53
836.891	229.83
837.185	173.84
837.478	171.34
837.772	169.61
838.066	143.44
838.359	120.9
838.653	122.16
838.946	134.68
839.24	129.31
839.533	130.68
839.826	135.71
840.119	133.15
840.413	146.43
840.706	115.26
840.999	104.37
841.292	104.61
841.585	99.47
841.878	103.13
842.171	105.91
842.464	110.14
842.757	105.95
843.049	104.59
843.342	94.95
843.635	101.04
843.927	114.79
844.22	121.12
844.513	128.79
844.805	113.11
845.098	131.6
845.39	131.51
845.682	133.01
845.975	126.54
846.267	146.41
846.559	143.17
846.851	140.12
847.143	124.03
847.435	115.9
847.727	98.14
848.019	104.66
848.311	136.3
848.603	165.43
848.895	186.55
849.186	166.72
849.478	192.63
849.77	188.37
850.061	167.59
850.353	139.23
850.645	160.62
850.936	136.34
851.227	139.64
851.519	135.04
851.81	130.88
852.101	140.86
852.393	142.24
852.684	163.52
852.975	244.09
853.266	815.08
853.557	596.49
853.848	729.95
854.139	691.35
854.43	1310.91
854.72	-3915.6
855.011	7444.78
855.302	1270.64
855.593	-1931.22
855.883	109200
856.174	546.52
856.464	1499.67
856.755	2377.44
857.045	440.2
857.336	1703.47
857.626	4278.79
857.916	1003.94
858.206	-356.84
858.497	-137.51
858.787	-91.54
859.077	-63.93
859.367	-103.37
859.657	-46.44
859.947	-51.36
860.237	-72.8
860.527	-1776
860.816	457.25
861.106	1371.78
861.396	381.04
861.685	75066.67
861.975	306.35
862.265	-390.68
862.554	-342.69
862.844	291.75
863.133	-2212.84
863.422	-475.64
863.712	-397.48
864.001	216.2
864.29	-520
864.579	-1796.08
864.868	961.4
865.157	-639.63
865.446	522.11
865.735	226.62
866.024	220.17
866.313	138.38
866.602	730
866.891	440.34
867.179	226.94
867.468	1288.89
