Data from T1_Reflection__55__22-58-39-194.txt Node

Date: Wed Jun 02 22:58:39 CEST 2021
User: mabdelazizm
Spectrometer: FLMS18565
Trigger mode: 0
Integration Time (sec): 2.000000E0
Scans to average: 1
Electric dark correction enabled: true
Nonlinearity correction enabled: false
Boxcar width: 12
XAxis mode: Wavelengths
Number of Pixels in Spectrum: 2048
>>>>>Begin Spectral Data<<<<<
179.071	233.5
179.452	378.26
179.833	262.23
180.214	183.64
180.595	982.24
180.977	490.24
181.358	314.87
181.739	468.63
182.12	230.42
182.501	274.32
182.882	216.22
183.262	225.71
183.643	112.05
184.024	62.3
184.405	48.43
184.786	35.81
185.166	36.77
185.547	34.05
185.927	20.2
186.308	22.89
186.689	26.4
187.069	21.32
187.449	13.18
187.83	15.31
188.21	13.52
188.59	12.71
188.971	13.11
189.351	10.63
189.731	14.15
190.111	17.09
190.491	18.19
190.871	15.16
191.251	17.99
191.631	18.3
192.011	16.59
192.391	14.48
192.771	16.16
193.151	16.07
193.531	16.6
193.91	16.1
194.29	15.17
194.67	12.87
195.049	12.58
195.429	14.81
195.808	13.05
196.188	12.39
196.567	12.1
196.946	14.02
197.326	13.69
197.705	13.71
198.084	13.21
198.464	13.59
198.843	14.38
199.222	13.5
199.601	12.42
199.98	11.73
200.359	13.26
200.738	12.52
201.117	12.39
201.496	12.72
201.875	12.31
202.254	11.55
202.632	11.23
203.011	9.98
203.39	10.5
203.768	10.59
204.147	11.8
204.525	11.12
204.904	10.69
205.282	11.05
205.661	10.19
206.039	10.58
206.418	10.25
206.796	9.78
207.174	10.04
207.552	11.21
207.931	10.81
208.309	10.97
208.687	10.7
209.065	11.52
209.443	11.13
209.821	10.19
210.199	9.05
210.577	7.77
210.954	7.92
211.332	8.54
211.71	8.29
212.088	8.54
212.465	9.08
212.843	8.15
213.221	8.41
213.598	8.84
213.976	8.47
214.353	8.55
214.731	8.6
215.108	9.23
215.485	8.42
215.863	8.43
216.24	8.17
216.617	8.54
216.994	7.79
217.371	6.98
217.749	6.68
218.126	6.94
218.503	6.1
218.88	5.68
219.256	5.98
219.633	6.58
220.01	7.43
220.387	7.7
220.764	7.1
221.14	6.9
221.517	6.76
221.894	6.18
222.27	6.4
222.647	6.4
223.023	5.68
223.4	5.99
223.776	6.02
224.153	5.55
224.529	4.93
224.905	5.53
225.282	5.46
225.658	5.29
226.034	4.9
226.41	4.75
226.786	4.62
227.162	4.29
227.538	4.31
227.914	4.33
228.29	4.14
228.666	3.78
229.042	3.59
229.418	3.48
229.793	3.2
230.169	3.24
230.545	3.1
230.92	3.1
231.296	3.13
231.672	3.16
232.047	2.89
232.422	2.87
232.798	2.59
233.173	2.4
233.549	2.27
233.924	2.21
234.299	1.91
234.674	1.84
235.05	1.77
235.425	1.71
235.8	1.57
236.175	1.5
236.55	1.55
236.925	1.42
237.3	1.34
237.675	1.31
238.049	1.47
238.424	1.47
238.799	1.4
239.174	1.42
239.548	1.23
239.923	1.28
240.297	1.2
240.672	1.16
241.046	1
241.421	1.02
241.795	0.95
242.17	1.01
242.544	0.94
242.918	0.99
243.293	1.04
243.667	1.03
244.041	0.97
244.415	0.98
244.789	0.95
245.163	1
245.537	1.03
245.911	0.99
246.285	1.02
246.659	1.06
247.033	1.11
247.406	1.03
247.78	0.99
248.154	0.94
248.528	0.86
248.901	0.9
249.275	0.89
249.648	0.87
250.022	0.88
250.395	0.94
250.769	0.9
251.142	0.94
251.515	0.89
251.888	0.91
252.262	0.88
252.635	0.86
253.008	0.9
253.381	0.84
253.754	0.86
254.127	0.86
254.5	0.86
254.873	0.82
255.246	0.81
255.619	0.79
255.992	0.71
256.364	0.73
256.737	0.76
257.11	0.8
257.483	0.82
257.855	0.85
258.228	0.82
258.6	0.8
258.973	0.84
259.345	0.85
259.718	0.81
260.09	0.88
260.462	0.85
260.834	0.85
261.207	0.85
261.579	0.94
261.951	0.95
262.323	0.9
262.695	0.88
263.067	0.87
263.439	0.9
263.811	0.88
264.183	0.89
264.555	0.89
264.927	0.88
265.298	0.91
265.67	0.87
266.042	0.83
266.413	0.82
266.785	0.81
267.156	0.79
267.528	0.8
267.899	0.8
268.271	0.76
268.642	0.72
269.013	0.69
269.385	0.7
269.756	0.73
270.127	0.72
270.498	0.69
270.87	0.6
271.241	0.6
271.612	0.6
271.983	0.68
272.354	0.7
272.724	0.72
273.095	0.77
273.466	0.79
273.837	0.83
274.208	0.78
274.578	0.78
274.949	0.77
275.32	0.77
275.69	0.75
276.061	0.74
276.431	0.75
276.802	0.73
277.172	0.73
277.542	0.73
277.913	0.71
278.283	0.76
278.653	0.69
279.023	0.7
279.394	0.73
279.764	0.72
280.134	0.74
280.504	0.76
280.874	0.77
281.244	0.74
281.614	0.7
281.983	0.73
282.353	0.7
282.723	0.75
283.093	0.72
283.462	0.76
283.832	0.75
284.202	0.74
284.571	0.74
284.941	0.68
285.31	0.69
285.68	0.71
286.049	0.7
286.418	0.66
286.788	0.71
287.157	0.7
287.526	0.76
287.895	0.77
288.264	0.75
288.633	0.72
289.002	0.74
289.371	0.72
289.74	0.67
290.109	0.67
290.478	0.66
290.847	0.69
291.216	0.61
291.585	0.53
291.953	0.45
292.322	0.45
292.691	0.42
293.059	0.38
293.428	0.35
293.796	0.37
294.165	0.43
294.533	0.4
294.901	0.44
295.27	0.47
295.638	0.49
296.006	0.42
296.374	0.46
296.743	0.35
297.111	0.36
297.479	0.35
297.847	0.39
298.215	0.38
298.583	0.43
298.95	0.46
299.318	0.46
299.686	0.47
300.054	0.45
300.422	0.45
300.789	0.54
301.157	0.6
301.525	0.6
301.892	0.68
302.26	0.78
302.627	0.83
302.994	0.82
303.362	0.75
303.729	0.72
304.097	0.66
304.464	0.63
304.831	0.64
305.198	0.63
305.565	0.64
305.932	0.65
306.299	0.69
306.666	0.72
307.033	0.71
307.4	0.77
307.767	0.75
308.134	0.79
308.501	0.78
308.867	0.76
309.234	0.79
309.601	0.83
309.967	0.83
310.334	0.84
310.701	0.76
311.067	0.7
311.433	0.63
311.8	0.59
312.166	0.63
312.533	0.74
312.899	0.78
313.265	0.76
313.631	0.78
313.997	0.79
314.363	0.74
314.729	0.71
315.096	0.68
315.461	0.63
315.827	0.59
316.193	0.57
316.559	0.54
316.925	0.53
317.291	0.46
317.656	0.43
318.022	0.49
318.388	0.43
318.753	0.37
319.119	0.35
319.484	0.28
319.85	0.39
320.215	0.43
320.581	0.42
320.946	0.42
321.311	0.36
321.676	0.29
322.042	0.28
322.407	0.29
322.772	0.34
323.137	0.32
323.502	0.38
323.867	0.41
324.232	0.46
324.597	0.48
324.962	0.52
325.327	0.53
325.691	0.54
326.056	0.57
326.421	0.6
326.785	0.59
327.15	0.53
327.514	0.58
327.879	0.62
328.243	0.62
328.608	0.65
328.972	0.64
329.337	0.66
329.701	0.66
330.065	0.7
330.429	0.72
330.794	0.74
331.158	0.75
331.522	0.76
331.886	0.68
332.25	0.58
332.614	0.58
332.978	0.57
333.342	0.61
333.705	0.57
334.069	0.55
334.433	0.55
334.797	0.48
335.16	0.47
335.524	0.44
335.887	0.47
336.251	0.54
336.614	0.53
336.978	0.55
337.341	0.54
337.705	0.55
338.068	0.65
338.431	0.6
338.794	0.59
339.158	0.52
339.521	0.51
339.884	0.51
340.247	0.48
340.61	0.49
340.973	0.53
341.336	0.61
341.699	0.62
342.062	0.6
342.424	0.56
342.787	0.58
343.15	0.56
343.512	0.52
343.875	0.56
344.238	0.54
344.6	0.61
344.963	0.64
345.325	0.55
345.688	0.49
346.05	0.48
346.412	0.46
346.775	0.49
347.137	0.39
347.499	0.39
347.861	0.42
348.223	0.44
348.585	0.41
348.947	0.43
349.309	0.45
349.671	0.45
350.033	0.44
350.395	0.38
350.757	0.33
351.118	0.35
351.48	0.37
351.842	0.38
352.203	0.41
352.565	0.46
352.927	0.46
353.288	0.47
353.65	0.4
354.011	0.37
354.372	0.44
354.734	0.46
355.095	0.47
355.456	0.45
355.817	0.44
356.179	0.38
356.54	0.33
356.901	0.35
357.262	0.37
357.623	0.38
357.984	0.38
358.345	0.4
358.705	0.36
359.066	0.34
359.427	0.38
359.788	0.43
360.148	0.4
360.509	0.33
360.87	0.35
361.23	0.32
361.591	0.35
361.951	0.33
362.312	0.41
362.672	0.4
363.032	0.35
363.393	0.34
363.753	0.31
364.113	0.23
364.473	0.26
364.833	0.26
365.193	0.26
365.553	0.31
365.913	0.27
366.273	0.29
366.633	0.37
366.993	0.27
367.353	0.22
367.713	0.24
368.072	0.22
368.432	0.22
368.792	0.26
369.151	0.22
369.511	0.26
369.87	0.22
370.23	0.27
370.589	0.17
370.949	0.17
371.308	0.05
371.667	0.1
372.027	0.19
372.386	0.19
372.745	0.24
373.104	0.27
373.463	0.25
373.822	0.25
374.181	0.37
374.54	0.31
374.899	0.26
375.258	0.18
375.617	0.17
375.975	0.26
376.334	0.29
376.693	0.29
377.052	0.31
377.41	0.35
377.769	0.31
378.127	0.3
378.486	0.29
378.844	0.32
379.202	0.29
379.561	0.38
379.919	0.34
380.277	0.33
380.636	0.32
380.994	0.24
381.352	0.18
381.71	0.14
382.068	0.23
382.426	0.22
382.784	0.17
383.142	0.13
383.5	0.14
383.857	0.22
384.215	0.25
384.573	0.14
384.931	0.04
385.288	0.06
385.646	0.02
386.003	0.05
386.361	0.01
386.718	0.05
387.076	0.09
387.433	0.08
387.791	0
388.148	0.02
388.505	-0.03
388.862	-0.06
389.22	0.09
389.577	0.12
389.934	0.16
390.291	0.19
390.648	0.22
391.005	0.16
391.362	0.15
391.718	0.12
392.075	0.02
392.432	0.07
392.789	0.01
393.145	0.03
393.502	0.09
393.859	0.19
394.215	0.22
394.572	0.3
394.928	0.22
395.285	0.23
395.641	0.2
395.997	0.15
396.354	0.23
396.71	0.27
397.066	0.24
397.422	0.25
397.778	0.34
398.134	0.25
398.491	0.18
398.846	0.27
399.202	0.32
399.558	0.34
399.914	0.32
400.27	0.36
400.626	0.35
400.981	0.41
401.337	0.34
401.693	0.36
402.048	0.4
402.404	0.46
402.759	0.43
403.115	0.4
403.47	0.44
403.826	0.53
404.181	0.59
404.536	0.57
404.892	0.67
405.247	0.57
405.602	0.61
405.957	0.62
406.312	0.67
406.667	0.71
407.022	0.77
407.377	0.87
407.732	0.82
408.087	0.79
408.442	0.76
408.796	0.77
409.151	0.78
409.506	0.89
409.86	0.88
410.215	0.97
410.57	1.04
410.924	1.05
411.279	1.04
411.633	1.1
411.987	1.18
412.342	1.16
412.696	1.22
413.05	1.32
413.404	1.41
413.758	1.58
414.113	1.75
414.467	1.86
414.821	1.95
415.175	2.06
415.529	2.06
415.882	2.06
416.236	2.13
416.59	2.14
416.944	2.21
417.298	2.41
417.651	2.53
418.005	2.69
418.358	2.8
418.712	2.94
419.065	3.04
419.419	3.16
419.772	3.16
420.126	3.29
420.479	3.47
420.832	3.54
421.185	3.56
421.539	3.68
421.892	3.68
422.245	3.84
422.598	3.9
422.951	4.05
423.304	4.11
423.657	4.24
424.01	4.43
424.363	4.69
424.715	4.93
425.068	5.01
425.421	5.3
425.773	5.53
426.126	5.67
426.479	5.85
426.831	5.94
427.184	6.14
427.536	6.31
427.889	6.45
428.241	6.67
428.593	6.94
428.945	7.18
429.298	7.35
429.65	7.59
430.002	8
430.354	8.27
430.706	8.55
431.058	8.72
431.41	8.85
431.762	8.94
432.114	9.19
432.466	9.44
432.817	9.48
433.169	9.66
433.521	9.82
433.872	10.03
434.224	10.08
434.576	10.14
434.927	10.29
435.279	10.45
435.63	10.58
435.981	10.68
436.333	10.79
436.684	10.95
437.035	10.97
437.387	11.07
437.738	11.03
438.089	10.94
438.44	11.05
438.791	10.91
439.142	10.91
439.493	10.92
439.844	10.87
440.195	10.87
440.545	10.95
440.896	10.97
441.247	10.97
441.598	11.08
441.948	11.03
442.299	11.07
442.649	11.17
443	11.34
443.35	11.45
443.701	11.5
444.051	11.42
444.401	11.5
444.752	11.53
445.102	11.59
445.452	11.55
445.802	11.59
446.152	11.67
446.502	11.82
446.852	12.03
447.202	11.98
447.552	12.21
447.902	12.31
448.252	12.42
448.602	13.86
448.952	14.11
449.301	14.23
449.651	14.28
450.001	14.48
450.35	14.72
450.7	14.94
451.049	15.06
451.399	15.19
451.748	15.34
452.097	15.51
452.447	15.61
452.796	15.82
453.145	16.07
453.494	16.2
453.843	16.35
454.193	16.73
454.542	16.92
454.891	17.08
455.239	17.24
455.588	17.53
455.937	17.98
456.286	18.19
456.635	18.5
456.984	18.8
457.332	17.56
457.681	17.69
458.03	17.9
458.378	18.09
458.727	18.24
459.075	18.24
459.423	18.41
459.772	18.68
460.12	18.85
460.468	18.91
460.817	19.14
461.165	19.32
461.513	19.6
461.861	19.79
462.209	19.99
462.557	20.06
462.905	20.23
463.253	20.33
463.601	20.47
463.949	20.57
464.297	20.46
464.644	20.3
464.992	20.34
465.34	20.2
465.687	20.09
466.035	20.05
466.383	20.13
466.73	20.1
467.078	20.2
467.425	20.02
467.772	20.01
468.12	20.02
468.467	19.91
468.814	19.9
469.161	19.97
469.508	19.78
469.856	19.55
470.203	19.35
470.55	19.18
470.897	18.99
471.243	18.97
471.59	18.73
471.937	18.73
472.284	18.68
472.631	18.56
472.977	18.55
473.324	18.4
473.671	18.32
474.017	18.32
474.364	18.27
474.71	18.23
475.057	18.12
475.403	17.96
475.749	17.9
476.096	18.01
476.442	18.1
476.788	18.13
477.134	18.19
477.48	18.13
477.826	18.2
478.172	18.36
478.518	18.5
478.864	18.71
479.21	18.98
479.556	19.33
479.902	19.58
480.248	19.8
480.593	20.09
480.939	20.38
481.285	20.77
481.63	21.07
481.976	21.51
482.321	21.77
482.667	22.11
483.012	22.44
483.357	22.88
483.703	23.28
484.048	23.91
484.393	24.36
484.738	24.95
485.084	25.36
485.429	25.88
485.774	26.48
486.119	27.16
486.464	27.76
486.808	28.37
487.153	29.1
487.498	29.72
487.843	30.37
488.188	30.99
488.532	31.64
488.877	32.55
489.222	33.31
489.566	34.15
489.911	35
490.255	35.79
490.6	36.55
490.944	37.37
491.288	38.14
491.633	38.87
491.977	39.64
492.321	40.44
492.665	41.18
493.009	41.94
493.353	42.62
493.697	43.48
494.041	44.16
494.385	44.86
494.729	45.51
495.073	46.13
495.417	46.79
495.76	47.36
496.104	48.08
496.448	48.75
496.791	49.46
497.135	50.05
497.479	50.58
497.822	51.19
498.165	51.69
498.509	52.22
498.852	52.85
499.196	53.54
499.539	54.08
499.882	54.71
500.225	55.35
500.568	55.86
500.911	56.28
501.254	56.71
501.597	57.24
501.94	57.69
502.283	58.03
502.626	58.51
502.969	58.99
503.312	59.37
503.654	59.77
503.997	60.14
504.34	60.58
504.682	60.91
505.025	61.22
505.367	61.56
505.71	62.02
506.052	62.48
506.395	62.76
506.737	63.05
507.079	63.34
507.421	63.71
507.764	63.88
508.106	64.15
508.448	64.28
508.79	64.47
509.132	64.65
509.474	65.02
509.816	65.23
510.158	65.35
510.499	65.39
510.841	65.51
511.183	65.71
511.525	65.84
511.866	65.99
512.208	66.19
512.549	66.37
512.891	66.55
513.232	66.8
513.574	66.93
513.915	67.14
514.256	67.19
514.598	67.27
514.939	67.54
515.28	67.76
515.621	67.87
515.962	67.95
516.303	68.21
516.644	68.3
516.985	68.44
517.326	68.68
517.667	68.8
518.008	68.84
518.349	68.82
518.69	69.06
519.03	69.22
519.371	69.37
519.712	69.47
520.052	69.55
520.393	69.7
520.733	69.81
521.074	69.86
521.414	70.08
521.754	69.9
522.095	69.96
522.435	70.03
522.775	70.34
523.115	70.38
523.455	70.1
523.795	70.2
524.135	70.26
524.475	70.16
524.815	70.21
525.155	70.53
525.495	70.59
525.835	70.53
526.175	70.48
526.514	70.41
526.854	70.62
527.194	70.57
527.533	70.73
527.873	70.65
528.212	70.6
528.552	70.56
528.891	70.57
529.23	70.52
529.57	70.51
529.909	70.45
530.248	70.76
530.587	70.74
530.927	70.71
531.266	70.67
531.605	70.7
531.944	70.89
532.283	70.96
532.621	71.01
532.96	71.33
533.299	71.45
533.638	71.33
533.977	71.35
534.315	71.46
534.654	71.62
534.992	71.71
535.331	71.69
535.67	71.64
536.008	71.48
536.346	71.7
536.685	71.74
537.023	71.77
537.361	71.86
537.7	71.82
538.038	71.98
538.376	71.96
538.714	72.05
539.052	72.24
539.39	72.17
539.728	72.24
540.066	72.3
540.404	72.41
540.741	72.45
541.079	72.36
541.417	72.27
541.755	72.09
542.092	71.98
542.43	72.01
542.767	71.86
543.105	71.9
543.442	71.94
543.78	71.99
544.117	72.08
544.454	72.1
544.792	72
545.129	72.15
545.466	72.05
545.803	71.96
546.14	71.93
546.477	71.87
546.814	71.78
547.151	71.54
547.488	71.53
547.825	71.6
548.162	71.6
548.499	71.6
548.835	71.42
549.172	71.28
549.509	71.27
549.845	71.21
550.182	71.23
550.518	71.48
550.855	71.48
551.191	71.58
551.528	71.65
551.864	71.48
552.2	71.5
552.537	71.51
552.873	71.7
553.209	71.84
553.545	71.68
553.881	71.72
554.217	71.6
554.553	71.77
554.889	71.83
555.225	71.98
555.561	72.21
555.896	72.1
556.232	72
556.568	71.9
556.903	71.82
557.239	71.99
557.575	72.02
557.91	72.2
558.245	72.27
558.581	72.12
558.916	72.14
559.252	72.19
559.587	72.1
559.922	72.07
560.257	72.22
560.592	72.22
560.928	72.34
561.263	72.5
561.598	72.41
561.933	72.41
562.267	72.63
562.602	72.95
562.937	72.86
563.272	72.88
563.607	72.87
563.941	72.76
564.276	72.86
564.611	73.01
564.945	73.04
565.28	72.9
565.614	72.82
565.949	72.81
566.283	72.82
566.617	72.93
566.951	72.99
567.286	73.06
567.62	73.07
567.954	73.36
568.288	73.41
568.622	73.36
568.956	73.38
569.29	73.26
569.624	73.02
569.958	73.01
570.292	73.19
570.626	73.25
570.959	73.24
571.293	73.29
571.627	73.38
571.96	73.37
572.294	73.31
572.627	73.3
572.961	73.34
573.294	73.32
573.627	73.51
573.961	73.61
574.294	73.67
574.627	73.83
574.961	73.82
575.294	73.7
575.627	73.54
575.96	73.47
576.293	73.32
576.626	73.21
576.959	73.2
577.292	73.1
577.624	73.22
577.957	73.25
578.29	73.41
578.623	73.47
578.955	73.24
579.288	73.16
579.62	73.2
579.953	73.17
580.285	73.33
580.618	73.5
580.95	73.56
581.282	73.48
581.615	73.62
581.947	73.63
582.279	73.63
582.611	73.6
582.943	73.47
583.275	73.43
583.607	73.7
583.939	73.83
584.271	73.93
584.603	74
584.935	74.04
585.267	74.08
585.598	74.36
585.93	74.19
586.262	74.26
586.593	74.22
586.925	73.88
587.256	73.94
587.588	73.88
587.919	73.94
588.25	73.88
588.582	73.74
588.913	73.63
589.244	73.42
589.575	73.55
589.907	73.5
590.238	73.5
590.569	73.53
590.9	73.57
591.231	73.57
591.562	73.44
591.892	73.33
592.223	73.48
592.554	73.4
592.885	73.49
593.215	73.61
593.546	73.65
593.877	73.38
594.207	73.26
594.538	73.14
594.868	73.02
595.198	73.15
595.529	73.23
595.859	73.53
596.189	73.38
596.52	73.43
596.85	73.51
597.18	73.74
597.51	73.77
597.84	73.6
598.17	73.54
598.5	73.41
598.83	73.32
599.16	73.38
599.489	73.41
599.819	73.47
600.149	73.52
600.479	73.21
600.808	73.19
601.138	73.08
601.467	73.02
601.797	73.09
602.126	73.18
602.456	73.36
602.785	73.42
603.114	73.6
603.443	73.73
603.773	73.87
604.102	73.69
604.431	73.83
604.76	73.7
605.089	73.6
605.418	73.21
605.747	73.19
606.076	73.22
606.405	72.95
606.733	72.85
607.062	73.05
607.391	72.76
607.72	72.55
608.048	72.5
608.377	72.37
608.705	72.49
609.034	72.51
609.362	72.44
609.69	72.42
610.019	72.36
610.347	72.46
610.675	72.37
611.004	72.55
611.332	72.46
611.66	72.33
611.988	71.98
612.316	72.01
612.644	71.92
612.972	72.05
613.3	71.99
613.627	72.25
613.955	72.44
614.283	72.68
614.611	72.9
614.938	73.08
615.266	72.97
615.593	73.31
615.921	73.63
616.248	73.54
616.576	73.67
616.903	73.72
617.23	73.92
617.558	74.26
617.885	74.08
618.212	73.98
618.539	73.81
618.866	73.75
619.193	73.5
619.52	73.23
619.847	73.06
620.174	73.2
620.501	73.12
620.828	73.18
621.155	72.97
621.481	72.81
621.808	72.72
622.135	72.67
622.461	72.3
622.788	72.54
623.114	72.6
623.441	72.55
623.767	72.6
624.093	72.5
624.42	72.74
624.746	73.02
625.072	72.94
625.398	72.89
625.725	72.93
626.051	73.09
626.377	73.32
626.703	73.64
627.029	74.07
627.354	74.13
627.68	74.43
628.006	74.99
628.332	75.11
628.658	75.13
628.983	74.89
629.309	74.96
629.634	75.58
629.96	75.2
630.285	75.42
630.611	75.75
630.936	75.57
631.262	75.61
631.587	75.64
631.912	75.35
632.237	75.54
632.562	75.77
632.887	75.28
633.213	75.36
633.538	75.74
633.863	74.95
634.187	74.99
634.512	75.13
634.837	74.95
635.162	74.9
635.487	74.71
635.811	74.97
636.136	75.26
636.461	75.39
636.785	75.44
637.11	75.86
637.434	76.25
637.758	75.81
638.083	76.04
638.407	75.68
638.731	76.21
639.056	76.83
639.38	77.36
639.704	76.95
640.028	77.37
640.352	76.88
640.676	76.82
641	77.15
641.324	76.67
641.648	76.16
641.972	76.15
642.295	76.19
642.619	76.11
642.943	76.07
643.266	75.85
643.59	76.15
643.913	75.9
644.237	75.33
644.56	75.25
644.884	75.14
645.207	75.27
645.53	75.33
645.854	75.32
646.177	75.41
646.5	75.96
646.823	75.58
647.146	75.27
647.469	74.44
647.792	74.43
648.115	74.23
648.438	74.58
648.761	75.46
649.084	74.97
649.406	75
649.729	73.69
650.052	73.39
650.374	73.1
650.697	72.94
651.019	72.86
651.342	72.98
651.664	72.82
651.987	72.65
652.309	72.68
652.631	72.91
652.953	72.87
653.276	72.8
653.598	72.59
653.92	72.69
654.242	72.83
654.564	72.66
654.886	72.57
655.208	72.45
655.53	72.53
655.851	72.56
656.173	72.69
656.495	72.71
656.816	71.99
657.138	71.99
657.46	71.7
657.781	73.4
658.103	74.29
658.424	75.45
658.746	75.47
659.067	75.74
659.388	75.61
659.709	76.11
660.031	76.29
660.352	76.91
660.673	75.81
660.994	76.11
661.315	76.36
661.636	77.64
661.957	77.58
662.278	77.44
662.599	77.27
662.919	77.47
663.24	77.76
663.561	78.6
663.881	79.01
664.202	78.23
664.523	77.11
664.843	77.28
665.164	76.77
665.484	75.7
665.804	75.62
666.125	76.17
666.445	75.6
666.765	75.71
667.085	76.2
667.405	76.84
667.726	78.16
668.046	78.9
668.366	78.5
668.686	78.78
669.005	78.58
669.325	77.99
669.645	77.56
669.965	77.1
670.285	76.32
670.604	76.57
670.924	75.76
671.243	75.38
671.563	75.03
671.882	74.44
672.202	74.11
672.521	74.78
672.841	75.08
673.16	75.61
673.479	75.79
673.798	75.17
674.117	75.19
674.437	75.92
674.756	76.23
675.075	76.06
675.394	75.09
675.713	74.04
676.031	74.52
676.35	73.95
676.669	73.96
676.988	75.01
677.306	74.72
677.625	75.2
677.944	75.59
678.262	75.7
678.581	75.63
678.899	76.15
679.218	75.55
679.536	75.43
679.854	75.64
680.172	76.44
680.491	76.7
680.809	76.5
681.127	75.78
681.445	76.25
681.763	76.67
682.081	75.93
682.399	76.13
682.717	77.32
683.035	77.41
683.352	77
683.67	77.36
683.988	77.57
684.306	77.84
684.623	77.34
684.941	77.46
685.258	77.39
685.576	77.11
685.893	77.58
686.211	78.37
686.528	78.82
686.845	79.2
687.162	80.45
687.48	80.54
687.797	80.53
688.114	80.14
688.431	80.25
688.748	80.99
689.065	80.96
689.382	80.56
689.699	80.4
690.015	80.56
690.332	80.2
690.649	79.06
690.966	78.05
691.282	79.25
691.599	79.01
691.915	77.92
692.232	77.78
692.548	78.86
692.865	77.89
693.181	78.25
693.497	78.55
693.813	79.1
694.13	78.57
694.446	78.45
694.762	77.96
695.078	78.37
695.394	79.23
695.71	79.65
696.026	79.45
696.342	78.68
696.658	78.11
696.973	78.76
697.289	79.17
697.605	78.4
697.92	78.78
698.236	78.93
698.551	79.24
698.867	80.46
699.182	81.15
699.498	82
699.813	82.99
700.128	83.44
700.444	84.02
700.759	83.32
701.074	83.44
701.389	82.69
701.704	81.17
702.019	82.11
702.334	82.54
702.649	83.08
702.964	81.69
703.279	80.96
703.594	80.29
703.908	80.95
704.223	81.99
704.538	81.47
704.852	80.35
705.167	79.6
705.481	81.49
705.796	80.58
706.11	80.62
706.425	80.23
706.739	79.37
707.053	78.82
707.368	77.17
707.682	76.46
707.996	76.85
708.31	75.29
708.624	74.82
708.938	75.63
709.252	75.45
709.566	76.6
709.88	76.15
710.193	74.8
710.507	73.86
710.821	75.18
711.135	74.96
711.448	75.76
711.762	75.46
712.075	75.02
712.389	76.65
712.702	76.74
713.015	76.58
713.329	75.53
713.642	76.45
713.955	76.1
714.269	75.68
714.582	76.44
714.895	75.45
715.208	76.64
715.521	77.24
715.834	77.5
716.147	79.18
716.459	79.87
716.772	80.71
717.085	82.21
717.398	80.23
717.71	79.44
718.023	80.96
718.336	81.87
718.648	81.96
718.961	81.05
719.273	81.13
719.585	81.1
719.898	80.88
720.21	80.26
720.522	79.94
720.834	80.61
721.147	81.57
721.459	82.56
721.771	83.12
722.083	83.13
722.395	83.51
722.707	85.92
723.019	85.48
723.33	84.27
723.642	82.45
723.954	82.47
724.265	83.92
724.577	81.95
724.889	80.22
725.2	81.28
725.512	81.73
725.823	81.76
726.135	82.19
726.446	81.6
726.757	82.57
727.068	83.03
727.38	82.54
727.691	83.35
728.002	82.76
728.313	84.22
728.624	84.2
728.935	83.6
729.246	83.05
729.557	82.55
729.867	81.28
730.178	80.46
730.489	79.59
730.8	79.59
731.11	79.14
731.421	79.4
731.731	78.16
732.042	77.65
732.352	76.57
732.663	77.05
732.973	77.51
733.283	77.49
733.594	77.12
733.904	76.28
734.214	76.64
734.524	76.49
734.834	77.26
735.144	78.08
735.454	78.25
735.764	79
736.074	79.05
736.384	79.79
736.694	80.03
737.003	79.84
737.313	80.67
737.623	82.26
737.932	83.55
738.242	83.13
738.551	83.17
738.861	85.27
739.17	85.76
739.479	86.77
739.789	86.67
740.098	89.68
740.407	89.08
740.716	88.39
741.025	88.39
741.334	89.42
741.643	90.26
741.952	88.26
742.261	90.06
742.57	88.16
742.879	88.27
743.188	86.28
743.497	84.28
743.805	83.7
744.114	84.42
744.422	84.54
744.731	84.87
745.04	84.52
745.348	83.75
745.656	83.11
745.965	83.17
746.273	83.61
746.581	83.06
746.889	81.51
747.198	79.82
747.506	80.63
747.814	80.05
748.122	80.97
748.43	81.69
748.738	81.5
749.046	80.86
749.353	81.88
749.661	82.25
749.969	81.94
750.277	81.44
750.584	81.3
750.892	80.79
751.199	83.28
751.507	83.17
751.814	81.81
752.122	82.42
752.429	84.58
752.736	84.06
753.044	82.85
753.351	82.98
753.658	83.2
753.965	86.64
754.272	85.63
754.579	86.77
754.886	87.55
755.193	87.52
755.5	86.01
755.807	85.8
756.114	85.01
756.42	86.14
756.727	86.86
757.034	85.93
757.34	89.96
757.647	88.9
757.953	89.01
758.26	88.95
758.566	89.3
758.872	89.09
759.179	91.64
759.485	91.5
759.791	91.33
760.097	88.31
760.403	86.71
760.709	87.99
761.015	86.13
761.321	87.16
761.627	84.26
761.933	85.9
762.239	87.55
762.545	87.72
762.851	87.36
763.156	88.91
763.462	88.75
763.767	88
764.073	87.78
764.378	85.8
764.684	84.78
764.989	81.41
765.295	81.31
765.6	79.53
765.905	80.21
766.21	83.44
766.515	82.75
766.821	79.41
767.126	79
767.431	82.14
767.736	82.25
768.041	84.56
768.345	87.57
768.65	92.44
768.955	89.98
769.26	86.89
769.564	85.99
769.869	82.54
770.174	87.49
770.478	87.76
770.783	87.72
771.087	88.13
771.391	90.86
771.696	93.28
772	98.41
772.304	104
772.608	106.79
772.913	107.67
773.217	115.84
773.521	112.67
773.825	106.58
774.129	107.46
774.433	111.57
774.736	112.44
775.04	113.23
775.344	116.05
775.648	112.48
775.951	111.01
776.255	106.96
776.559	110.16
776.862	114.89
777.166	120.81
777.469	131.12
777.772	123.93
778.076	122.8
778.379	118.12
778.682	118.96
778.985	115.85
779.289	112
779.592	107.58
779.895	108.93
780.198	111.1
780.501	115.27
780.804	105.83
781.106	105.15
781.409	108.77
781.712	112.09
782.015	107.3
782.317	107.93
782.62	99.33
782.923	102.26
783.225	106.65
783.527	103.16
783.83	100.23
784.132	99.3
784.435	98.26
784.737	93.61
785.039	95.79
785.341	95.31
785.643	92.38
785.945	92.91
786.248	98.62
786.55	102.11
786.851	101.33
787.153	104.26
787.455	100.65
787.757	95.18
788.059	92.74
788.36	101.2
788.662	109.42
788.964	108.49
789.265	98.78
789.567	101.18
789.868	103.81
790.17	111.63
790.471	109.03
790.772	111.55
791.074	122.67
791.375	127.42
791.676	131.78
791.977	131.41
792.278	125.6
792.579	112.38
792.88	111.95
793.181	120.48
793.482	139.19
793.783	113.28
794.083	105.95
794.384	123.72
794.685	135.78
794.986	134.22
795.286	127.56
795.587	132.59
795.887	130.23
796.188	125.52
796.488	132.6
796.788	143.8
797.089	138.41
797.389	136.09
797.689	136.29
797.989	142.17
798.289	133.95
798.589	128.11
798.889	130.58
799.189	138.36
799.489	154.58
799.789	207.93
800.089	243.98
800.389	318.82
800.688	300.49
800.988	255.94
801.288	330.44
801.587	358.06
801.887	325.74
802.186	241.72
802.486	233.63
802.785	355.22
803.085	524.41
803.384	2189.8
803.683	-750.38
803.982	-2383.2
804.281	-1528.96
804.58	-2165.9
804.879	-3789.91
805.178	-1783.54
805.477	1150.12
805.776	592.6
806.075	453.08
806.374	334.97
806.673	286.45
806.971	304.86
807.27	225.42
807.569	175.76
807.867	153.63
808.166	163.97
808.464	166.37
808.763	161.05
809.061	160.03
809.359	168.45
809.658	181.52
809.956	210.07
810.254	246.88
810.552	212.37
810.85	199.94
811.148	173.21
811.446	175.58
811.744	164.02
812.042	167.86
812.34	156.73
812.638	169.62
812.935	167.7
813.233	210
813.531	235.35
813.828	221.19
814.126	220.87
814.423	200.41
814.721	218.95
815.018	294.7
815.316	200.52
815.613	183.02
815.91	201.89
816.207	216.39
816.504	267.63
816.802	252
817.099	262.08
817.396	168.63
817.693	155.61
817.99	175.47
818.286	156.94
818.583	176.62
818.88	250.6
819.177	247.12
819.473	192.68
819.77	251.21
820.067	175.95
820.363	180.12
820.66	192.36
820.956	183.01
821.252	202.54
821.549	218.16
821.845	227.88
822.141	253.28
822.437	242.46
822.734	270.97
823.03	283.42
823.326	255.75
823.622	267.21
823.918	226.08
824.213	231.28
824.509	219.42
824.805	279.37
825.101	269.45
825.397	243.43
825.692	332.27
825.988	367.7
826.283	242.07
826.579	222.28
826.874	361.65
827.17	283.21
827.465	365.15
827.76	484.46
828.056	675.42
828.351	1138.35
828.646	-895.28
828.941	945.98
829.236	555.11
829.531	600.18
829.826	717.29
830.121	-971.47
830.416	-399.82
830.711	-82.26
831.006	-120.02
831.3	-321.64
831.595	-209.42
831.89	-109.15
832.184	-205.83
832.479	-500.79
832.773	-307.67
833.068	-540
833.362	-2575.41
833.656	1686.09
833.951	-332.28
834.245	296.89
834.539	1630.43
834.833	600.21
835.127	418.8
835.421	345.15
835.715	517.12
836.009	390.23
836.303	591.09
836.597	539.95
836.891	304.4
837.185	227.03
837.478	202.29
837.772	221.83
838.066	213.49
838.359	188.12
838.653	199.04
838.946	188.01
839.24	148.98
839.533	142.88
839.826	155.56
840.119	165.89
840.413	196.37
840.706	182.57
840.999	174.17
841.292	180.9
841.585	162.23
841.878	147.51
842.171	144.97
842.464	146.79
842.757	129.47
843.049	121.68
843.342	117.67
843.635	109.67
843.927	108.65
844.22	107.3
844.513	117.5
844.805	101.2
845.098	101.89
845.39	95.27
845.682	97.19
845.975	95.31
846.267	113.61
846.559	138.4
846.851	156.41
847.143	140.9
847.435	142.32
847.727	119.51
848.019	123.01
848.311	146.99
848.603	161.3
848.895	213.56
849.186	213.72
849.478	253.27
849.77	226.1
850.061	210.12
850.353	193.24
850.645	183.34
850.936	178.61
851.227	186.79
851.519	184.75
851.81	175.15
852.101	216.13
852.393	200.41
852.684	232.98
852.975	318.66
853.266	1089.8
853.557	763.48
853.848	791.33
854.139	677.85
854.43	1237.46
854.72	-3246.79
855.011	5043.28
855.302	791.17
855.593	-1376.92
855.883	103033.33
856.174	369.6
856.464	1053.75
856.755	1888.72
857.045	453.77
857.336	1922.39
857.626	4803.03
857.916	1479.15
858.206	-550.44
858.497	-244.85
858.787	-172.15
859.077	-121.38
859.367	-201.34
859.657	-194.31
859.947	-193.05
860.237	-331.05
860.527	-4482.4
860.816	1106.4
861.106	3447.24
861.396	910.67
861.685	196900
861.975	751.56
862.265	-1492.54
862.554	-1926.36
862.844	957.37
863.133	-5742.2
863.422	-1885.1
863.712	-1944.16
864.001	1296.23
864.29	-3044
864.579	-11507.84
864.868	5040.35
865.157	-2524.88
865.446	1540
865.735	644.64
866.024	775.5
866.313	538.68
866.602	2930
866.891	1296.64
867.179	890.2
867.468	5763.49
