Data from T1_Reflection__80__23-22-47-147.txt Node

Date: Wed Jun 02 23:22:47 CEST 2021
User: mabdelazizm
Spectrometer: FLMS18565
Trigger mode: 0
Integration Time (sec): 2.000000E0
Scans to average: 1
Electric dark correction enabled: true
Nonlinearity correction enabled: false
Boxcar width: 12
XAxis mode: Wavelengths
Number of Pixels in Spectrum: 2048
>>>>>Begin Spectral Data<<<<<
179.071	53.25
179.452	-10.28
179.833	0.76
180.214	-21.82
180.595	-753.27
180.977	-219.51
181.358	-165.47
181.739	-450.98
182.12	-209.54
182.501	-184.44
182.882	2.19
183.262	-13.33
183.643	20.33
184.024	37.53
184.405	46.81
184.786	55.87
185.166	57.05
185.547	53.32
185.927	44.49
186.308	37.27
186.689	34.14
187.069	34
187.449	29.27
187.83	29.84
188.21	29.65
188.59	24.75
188.971	27.5
189.351	25.06
189.731	26.49
190.111	28.08
190.491	26.8
190.871	26.57
191.251	27.72
191.631	28.79
192.011	27.42
192.391	24.8
192.771	25.62
193.151	22.25
193.531	22.35
193.91	21.55
194.29	20.44
194.67	18.85
195.049	18.28
195.429	19.92
195.808	18.67
196.188	18.34
196.567	17.37
196.946	16.61
197.326	14.71
197.705	13.12
198.084	12.22
198.464	12.14
198.843	12.69
199.222	11.87
199.601	11.67
199.98	10.84
200.359	9.95
200.738	10.83
201.117	10.72
201.496	10.72
201.875	8.91
202.254	8.64
202.632	9.51
203.011	8.73
203.39	8.14
203.768	8.24
204.147	10.76
204.525	9.98
204.904	9.37
205.282	8.98
205.661	8.11
206.039	9.45
206.418	10.64
206.796	12.64
207.174	13.15
207.552	13.68
207.931	13.36
208.309	13.98
208.687	14.25
209.065	15.17
209.443	15.02
209.821	14.94
210.199	13.17
210.577	11.78
210.954	11.63
211.332	12.88
211.71	12.86
212.088	13.1
212.465	13.37
212.843	13.43
213.221	12.62
213.598	11.65
213.976	11.18
214.353	10.51
214.731	10.88
215.108	11.39
215.485	9.97
215.863	9.72
216.24	8.44
216.617	8.53
216.994	8.64
217.371	8.11
217.749	7.9
218.126	7.76
218.503	6.92
218.88	6.78
219.256	7.44
219.633	7.67
220.01	8.15
220.387	8.55
220.764	8.05
221.14	7.49
221.517	7.54
221.894	7.25
222.27	7.68
222.647	7.84
223.023	7.4
223.4	7.47
223.776	7.95
224.153	7.64
224.529	7.14
224.905	7.55
225.282	7.39
225.658	7.04
226.034	6.76
226.41	6.45
226.786	6.35
227.162	5.92
227.538	5.86
227.914	5.68
228.29	5.53
228.666	5.07
229.042	4.94
229.418	4.74
229.793	4.36
230.169	4.5
230.545	4.36
230.92	4.24
231.296	4.07
231.672	3.95
232.047	3.76
232.422	3.7
232.798	3.56
233.173	3.45
233.549	3.44
233.924	3.41
234.299	2.99
234.674	2.94
235.05	3.02
235.425	3.13
235.8	3.15
236.175	3.04
236.55	3.03
236.925	2.96
237.3	2.96
237.675	2.98
238.049	3.07
238.424	3.1
238.799	3.12
239.174	3.21
239.548	3.11
239.923	3.09
240.297	3.06
240.672	3.07
241.046	2.95
241.421	3
241.795	2.98
242.17	3.04
242.544	2.93
242.918	2.93
243.293	3.01
243.667	3.15
244.041	3.14
244.415	3.13
244.789	3.03
245.163	3.02
245.537	3.07
245.911	3
246.285	3.02
246.659	3.06
247.033	3.1
247.406	3.1
247.78	3.03
248.154	3.02
248.528	2.94
248.901	2.92
249.275	2.97
249.648	3.01
250.022	3
250.395	3.01
250.769	2.96
251.142	3.04
251.515	2.99
251.888	2.98
252.262	2.96
252.635	2.9
253.008	2.89
253.381	2.79
253.754	2.79
254.127	2.83
254.5	2.8
254.873	2.72
255.246	2.75
255.619	2.71
255.992	2.6
256.364	2.52
256.737	2.52
257.11	2.54
257.483	2.53
257.855	2.56
258.228	2.56
258.6	2.51
258.973	2.5
259.345	2.54
259.718	2.52
260.09	2.54
260.462	2.43
260.834	2.37
261.207	2.36
261.579	2.4
261.951	2.38
262.323	2.35
262.695	2.33
263.067	2.35
263.439	2.3
263.811	2.29
264.183	2.33
264.555	2.31
264.927	2.3
265.298	2.35
265.67	2.38
266.042	2.36
266.413	2.34
266.785	2.36
267.156	2.33
267.528	2.27
267.899	2.2
268.271	2.17
268.642	2.11
269.013	2.1
269.385	2.14
269.756	2.15
270.127	2.17
270.498	2.2
270.87	2.11
271.241	2.05
271.612	2
271.983	2.03
272.354	1.98
272.724	2.03
273.095	2.04
273.466	1.98
273.837	2.01
274.208	1.96
274.578	1.93
274.949	1.93
275.32	1.91
275.69	1.9
276.061	1.88
276.431	1.88
276.802	1.86
277.172	1.93
277.542	1.88
277.913	1.89
278.283	1.89
278.653	1.83
279.023	1.85
279.394	1.85
279.764	1.82
280.134	1.83
280.504	1.87
280.874	1.89
281.244	1.86
281.614	1.84
281.983	1.83
282.353	1.85
282.723	1.91
283.093	1.92
283.462	1.92
283.832	1.9
284.202	1.87
284.571	1.86
284.941	1.81
285.31	1.77
285.68	1.74
286.049	1.77
286.418	1.68
286.788	1.81
287.157	1.74
287.526	1.75
287.895	1.77
288.264	1.73
288.633	1.66
289.002	1.68
289.371	1.7
289.74	1.69
290.109	1.69
290.478	1.72
290.847	1.73
291.216	1.69
291.585	1.6
291.953	1.53
292.322	1.49
292.691	1.53
293.059	1.51
293.428	1.46
293.796	1.46
294.165	1.53
294.533	1.52
294.901	1.59
295.27	1.61
295.638	1.63
296.006	1.5
296.374	1.56
296.743	1.5
297.111	1.5
297.479	1.45
297.847	1.51
298.215	1.46
298.583	1.41
298.95	1.4
299.318	1.36
299.686	1.31
300.054	1.33
300.422	1.31
300.789	1.34
301.157	1.38
301.525	1.38
301.892	1.38
302.26	1.43
302.627	1.46
302.994	1.41
303.362	1.39
303.729	1.36
304.097	1.26
304.464	1.22
304.831	1.26
305.198	1.24
305.565	1.24
305.932	1.27
306.299	1.23
306.666	1.3
307.033	1.29
307.4	1.33
307.767	1.28
308.134	1.3
308.501	1.28
308.867	1.29
309.234	1.28
309.601	1.29
309.967	1.35
310.334	1.37
310.701	1.35
311.067	1.33
311.433	1.32
311.8	1.33
312.166	1.4
312.533	1.44
312.899	1.44
313.265	1.48
313.631	1.53
313.997	1.55
314.363	1.53
314.729	1.52
315.096	1.46
315.461	1.44
315.827	1.39
316.193	1.4
316.559	1.38
316.925	1.43
317.291	1.41
317.656	1.46
318.022	1.48
318.388	1.49
318.753	1.43
319.119	1.36
319.484	1.32
319.85	1.31
320.215	1.27
320.581	1.25
320.946	1.23
321.311	1.23
321.676	1.17
322.042	1.19
322.407	1.25
322.772	1.21
323.137	1.2
323.502	1.2
323.867	1.17
324.232	1.27
324.597	1.34
324.962	1.42
325.327	1.43
325.691	1.42
326.056	1.45
326.421	1.43
326.785	1.36
327.15	1.36
327.514	1.36
327.879	1.39
328.243	1.37
328.608	1.4
328.972	1.43
329.337	1.46
329.701	1.52
330.065	1.58
330.429	1.52
330.794	1.52
331.158	1.53
331.522	1.45
331.886	1.48
332.25	1.39
332.614	1.43
332.978	1.49
333.342	1.46
333.705	1.42
334.069	1.31
334.433	1.28
334.797	1.29
335.16	1.29
335.524	1.32
335.887	1.37
336.251	1.42
336.614	1.34
336.978	1.38
337.341	1.45
337.705	1.41
338.068	1.5
338.431	1.47
338.794	1.43
339.158	1.32
339.521	1.29
339.884	1.25
340.247	1.19
340.61	1.15
340.973	1.16
341.336	1.27
341.699	1.26
342.062	1.18
342.424	1.23
342.787	1.18
343.15	1.21
343.512	1.18
343.875	1.16
344.238	1.13
344.6	1.14
344.963	1.17
345.325	1.1
345.688	1.15
346.05	1.15
346.412	1.08
346.775	1.12
347.137	0.99
347.499	1
347.861	1.02
348.223	1.03
348.585	1.06
348.947	1.13
349.309	1.16
349.671	1.2
350.033	1.16
350.395	1.1
350.757	1.12
351.118	1.18
351.48	1.15
351.842	1.24
352.203	1.29
352.565	1.35
352.927	1.44
353.288	1.43
353.65	1.39
354.011	1.35
354.372	1.37
354.734	1.41
355.095	1.33
355.456	1.33
355.817	1.29
356.179	1.31
356.54	1.31
356.901	1.32
357.262	1.33
357.623	1.29
357.984	1.27
358.345	1.27
358.705	1.27
359.066	1.24
359.427	1.24
359.788	1.21
360.148	1.23
360.509	1.16
360.87	1.11
361.23	1.07
361.591	1.04
361.951	0.99
362.312	1.07
362.672	1.07
363.032	1.07
363.393	1.12
363.753	1.06
364.113	1.11
364.473	1.15
364.833	1.15
365.193	1.13
365.553	1.2
365.913	1.19
366.273	1.25
366.633	1.38
366.993	1.27
367.353	1.28
367.713	1.33
368.072	1.34
368.432	1.36
368.792	1.4
369.151	1.33
369.511	1.36
369.87	1.32
370.23	1.35
370.589	1.37
370.949	1.33
371.308	1.31
371.667	1.32
372.027	1.34
372.386	1.37
372.745	1.37
373.104	1.31
373.463	1.34
373.822	1.36
374.181	1.42
374.54	1.31
374.899	1.31
375.258	1.21
375.617	1.13
375.975	1.21
376.334	1.25
376.693	1.24
377.052	1.25
377.41	1.26
377.769	1.23
378.127	1.22
378.486	1.22
378.844	1.26
379.202	1.22
379.561	1.25
379.919	1.24
380.277	1.24
380.636	1.24
380.994	1.21
381.352	1.12
381.71	1.11
382.068	1.23
382.426	1.25
382.784	1.28
383.142	1.34
383.5	1.42
383.857	1.43
384.215	1.48
384.573	1.42
384.931	1.36
385.288	1.35
385.646	1.31
386.003	1.33
386.361	1.32
386.718	1.36
387.076	1.43
387.433	1.45
387.791	1.46
388.148	1.59
388.505	1.59
388.862	1.55
389.22	1.62
389.577	1.71
389.934	1.77
390.291	1.81
390.648	1.87
391.005	1.89
391.362	1.84
391.718	1.89
392.075	1.84
392.432	1.82
392.789	1.86
393.145	1.98
393.502	2.11
393.859	2.31
394.215	2.41
394.572	2.51
394.928	2.58
395.285	2.67
395.641	2.77
395.997	2.79
396.354	2.93
396.71	3.05
397.066	3.13
397.422	3.24
397.778	3.5
398.134	3.51
398.491	3.6
398.846	3.71
399.202	3.95
399.558	4.14
399.914	4.2
400.27	4.41
400.626	4.51
400.981	4.67
401.337	4.83
401.693	5.05
402.048	5.23
402.404	5.46
402.759	5.54
403.115	5.76
403.47	6.03
403.826	6.34
404.181	6.61
404.536	6.77
404.892	7.08
405.247	7.2
405.602	7.47
405.957	7.67
406.312	8.02
406.667	8.2
407.022	8.56
407.377	8.89
407.732	9.25
408.087	9.49
408.442	9.77
408.796	10.14
409.151	10.47
409.506	10.9
409.86	11.24
410.215	11.72
410.57	12.02
410.924	12.4
411.279	12.7
411.633	13.18
411.987	13.59
412.342	13.9
412.696	14.26
413.05	14.73
413.404	15.17
413.758	15.79
414.113	16.37
414.467	16.88
414.821	17.42
415.175	17.88
415.529	18.38
415.882	18.82
416.236	19.38
416.59	19.82
416.944	20.24
417.298	20.78
417.651	21.27
418.005	21.8
418.358	22.31
418.712	22.82
419.065	23.26
419.419	23.73
419.772	24.09
420.126	24.74
420.479	25.28
420.832	25.69
421.185	26.09
421.539	26.59
421.892	26.93
422.245	27.32
422.598	27.69
422.951	28.23
423.304	28.65
423.657	28.95
424.01	29.37
424.363	29.82
424.715	30.3
425.068	30.57
425.421	31.02
425.773	31.44
426.126	31.86
426.479	32.19
426.831	32.41
427.184	32.67
427.536	33.02
427.889	33.29
428.241	33.66
428.593	34.06
428.945	34.47
429.298	34.71
429.65	35.07
430.002	35.53
430.354	35.9
430.706	36.3
431.058	36.71
431.41	36.87
431.762	36.97
432.114	37.25
432.466	37.59
432.817	37.93
433.169	38.26
433.521	38.56
433.872	38.94
434.224	39.13
434.576	39.48
434.927	39.61
435.279	39.91
435.63	40.19
435.981	40.36
436.333	40.7
436.684	41.02
437.035	41.25
437.387	41.34
437.738	41.27
438.089	41.36
438.44	41.48
438.791	41.55
439.142	41.51
439.493	41.66
439.844	41.65
440.195	41.77
440.545	41.9
440.896	41.91
441.247	42.07
441.598	42.16
441.948	42.25
442.299	42.29
442.649	42.35
443	42.45
443.35	42.49
443.701	42.62
444.051	42.71
444.401	42.85
444.752	43.04
445.102	42.99
445.452	42.98
445.802	43.02
446.152	43.15
446.502	43.4
446.852	43.51
447.202	43.57
447.552	43.69
447.902	43.75
448.252	43.84
448.602	45.46
448.952	45.63
449.301	45.6
449.651	45.67
450.001	45.65
450.35	45.6
450.7	45.61
451.049	45.69
451.399	45.66
451.748	45.78
452.097	45.7
452.447	45.75
452.796	45.76
453.145	45.8
453.494	45.66
453.843	45.54
454.193	45.52
454.542	45.46
454.891	45.55
455.239	45.4
455.588	45.41
455.937	45.47
456.286	45.41
456.635	45.55
456.984	45.44
457.332	43.67
457.681	43.53
458.03	43.48
458.378	43.46
458.727	43.39
459.075	43.37
459.423	43.32
459.772	43.27
460.12	43.16
460.468	42.93
460.817	42.99
461.165	42.89
461.513	42.75
461.861	42.76
462.209	42.61
462.557	42.5
462.905	42.47
463.253	42.45
463.601	42.24
463.949	42.14
464.297	41.97
464.644	41.71
464.992	41.58
465.34	41.42
465.687	41.27
466.035	41.09
466.383	41.04
466.73	41.1
467.078	41.06
467.425	40.97
467.772	40.87
468.12	40.66
468.467	40.53
468.814	40.57
469.161	40.58
469.508	40.44
469.856	40.25
470.203	40.08
470.55	39.69
470.897	39.59
471.243	39.57
471.59	39.27
471.937	39.04
472.284	38.88
472.631	38.79
472.977	38.72
473.324	38.56
473.671	38.37
474.017	38.2
474.364	38.08
474.71	38.07
475.057	37.93
475.403	37.74
475.749	37.45
476.096	37.23
476.442	37.07
476.788	36.92
477.134	36.86
477.48	36.67
477.826	36.56
478.172	36.36
478.518	36.21
478.864	36.04
479.21	36.05
479.556	36.01
479.902	35.83
480.248	35.67
480.593	35.54
480.939	35.39
481.285	35.3
481.63	35.14
481.976	35.02
482.321	34.79
482.667	34.55
483.012	34.32
483.357	34.1
483.703	33.93
484.048	33.88
484.393	33.79
484.738	33.72
485.084	33.48
485.429	33.35
485.774	33.12
486.119	32.89
486.464	32.73
486.808	32.62
487.153	32.59
487.498	32.48
487.843	32.25
488.188	32.04
488.532	31.83
488.877	31.72
489.222	31.56
489.566	31.4
489.911	31.11
490.255	30.85
490.6	30.65
490.944	30.61
491.288	30.52
491.633	30.31
491.977	30.23
492.321	30.04
492.665	29.82
493.009	29.67
493.353	29.53
493.697	29.47
494.041	29.29
494.385	29.19
494.729	29.09
495.073	28.9
495.417	28.76
495.76	28.52
496.104	28.36
496.448	28.24
496.791	28.13
497.135	28.01
497.479	27.82
497.822	27.66
498.165	27.48
498.509	27.38
498.852	27.32
499.196	27.23
499.539	27.05
499.882	26.96
500.225	26.9
500.568	26.73
500.911	26.62
501.254	26.49
501.597	26.46
501.94	26.34
502.283	26.12
502.626	26.07
502.969	25.95
503.312	25.81
503.654	25.7
503.997	25.59
504.34	25.38
504.682	25.29
505.025	25.16
505.367	24.95
505.71	24.79
506.052	24.69
506.395	24.55
506.737	24.49
507.079	24.3
507.421	24.18
507.764	24.07
508.106	23.92
508.448	23.77
508.79	23.68
509.132	23.54
509.474	23.37
509.816	23.13
510.158	22.85
510.499	22.66
510.841	22.54
511.183	22.34
511.525	22.19
511.866	22.02
512.208	21.9
512.549	21.64
512.891	21.64
513.232	21.44
513.574	21.29
513.915	21.17
514.256	21.1
514.598	21.07
514.939	21.05
515.28	20.92
515.621	20.9
515.962	20.79
516.303	20.73
516.644	20.71
516.985	20.57
517.326	20.45
517.667	20.43
518.008	20.38
518.349	20.36
518.69	20.31
519.03	20.22
519.371	20.17
519.712	20.16
520.052	20.15
520.393	20.15
520.733	20.02
521.074	20.01
521.414	19.87
521.754	19.79
522.095	19.74
522.435	19.79
522.775	19.81
523.115	19.69
523.455	19.44
523.795	19.33
524.135	19.16
524.475	19.11
524.815	19.04
525.155	18.97
525.495	18.97
525.835	18.89
526.175	18.74
526.514	18.72
526.854	18.65
527.194	18.63
527.533	18.65
527.873	18.61
528.212	18.52
528.552	18.49
528.891	18.33
529.23	18.45
529.57	18.4
529.909	18.38
530.248	18.36
530.587	18.19
530.927	18.03
531.266	17.91
531.605	17.87
531.944	17.95
532.283	17.9
532.621	17.86
532.96	17.77
533.299	17.69
533.638	17.61
533.977	17.48
534.315	17.4
534.654	17.46
534.992	17.34
535.331	17.24
535.67	17.06
536.008	16.84
536.346	16.71
536.685	16.7
537.023	16.49
537.361	16.45
537.7	16.14
538.038	16
538.376	15.89
538.714	15.93
539.052	15.91
539.39	15.94
539.728	15.91
540.066	15.8
540.404	15.66
540.741	15.56
541.079	15.51
541.417	15.51
541.755	15.33
542.092	15.25
542.43	15.24
542.767	15.23
543.105	15.11
543.442	15.05
543.78	15.17
544.117	15.2
544.454	15.33
544.792	15.34
545.129	15.36
545.466	15.28
545.803	15.2
546.14	15.21
546.477	15.22
546.814	15.18
547.151	14.96
547.488	15.09
547.825	14.99
548.162	15.02
548.499	15.07
548.835	15.09
549.172	15.19
549.509	15.21
549.845	15.19
550.182	15.25
550.518	15.25
550.855	15.21
551.191	15.16
551.528	15.22
551.864	15.14
552.2	15.04
552.537	15
552.873	15.03
553.209	15.03
553.545	14.87
553.881	14.99
554.217	15.05
554.553	15.09
554.889	15.09
555.225	15.07
555.561	15.17
555.896	15.04
556.232	15.04
556.568	14.96
556.903	14.92
557.239	14.85
557.575	14.78
557.91	14.8
558.245	14.85
558.581	14.88
558.916	14.9
559.252	15.02
559.587	15
559.922	15
560.257	15.13
560.592	15.17
560.928	15.34
561.263	15.46
561.598	15.52
561.933	15.58
562.267	15.56
562.602	15.68
562.937	15.74
563.272	15.76
563.607	15.97
563.941	15.97
564.276	16.03
564.611	16.15
564.945	16.12
565.28	16
565.614	16.16
565.949	16.32
566.283	16.27
566.617	16.33
566.951	16.37
567.286	16.4
567.62	16.43
567.954	16.56
568.288	16.7
568.622	16.67
568.956	16.71
569.29	16.61
569.624	16.52
569.958	16.52
570.292	16.61
570.626	16.7
570.959	16.7
571.293	16.78
571.627	16.83
571.96	16.79
572.294	16.89
572.627	16.9
572.961	16.87
573.294	16.97
573.627	17.14
573.961	17.16
574.294	17.2
574.627	17.35
574.961	17.36
575.294	17.35
575.627	17.37
575.96	17.43
576.293	17.37
576.626	17.3
576.959	17.4
577.292	17.45
577.624	17.58
577.957	17.69
578.29	17.76
578.623	17.76
578.955	17.71
579.288	17.81
579.62	17.79
579.953	17.86
580.285	17.89
580.618	17.95
580.95	18.06
581.282	18.15
581.615	18.13
581.947	18.19
582.279	18.25
582.611	18.22
582.943	18.29
583.275	18.28
583.607	18.41
583.939	18.48
584.271	18.52
584.603	18.64
584.935	18.73
585.267	18.76
585.598	18.81
585.93	18.89
586.262	18.91
586.593	19.05
586.925	19.16
587.256	19.37
587.588	19.49
587.919	19.75
588.25	19.87
588.582	20.09
588.913	20.15
589.244	20.22
589.575	20.4
589.907	20.59
590.238	20.62
590.569	20.8
590.9	21.03
591.231	21.11
591.562	21.28
591.892	21.44
592.223	21.68
592.554	21.74
592.885	21.87
593.215	22.07
593.546	22.14
593.877	22.16
594.207	22.22
594.538	22.28
594.868	22.34
595.198	22.53
595.529	22.65
595.859	22.71
596.189	22.68
596.52	22.74
596.85	22.79
597.18	22.95
597.51	23.03
597.84	22.94
598.17	23.01
598.5	23.18
598.83	23.32
599.16	23.45
599.489	23.52
599.819	23.64
600.149	23.75
600.479	23.83
600.808	24.01
601.138	24.21
601.467	24.3
601.797	24.56
602.126	24.81
602.456	24.94
602.785	25.18
603.114	25.43
603.443	25.65
603.773	25.96
604.102	26.18
604.431	26.36
604.76	26.6
605.089	26.82
605.418	26.97
605.747	27.35
606.076	27.85
606.405	28.04
606.733	28.38
607.062	28.65
607.391	28.79
607.72	29.04
608.048	29.46
608.377	29.73
608.705	30.14
609.034	30.52
609.362	30.86
609.69	31.18
610.019	31.4
610.347	31.64
610.675	32.02
611.004	32.28
611.332	32.55
611.66	32.79
611.988	32.89
612.316	33.01
612.644	33.45
612.972	33.63
613.3	33.8
613.627	34.2
613.955	34.38
614.283	34.47
614.611	34.65
614.938	34.77
615.266	35.04
615.593	35.44
615.921	35.94
616.248	36.01
616.576	36.25
616.903	36.54
617.23	37.15
617.558	37.61
617.885	37.82
618.212	38.26
618.539	38.61
618.866	38.69
619.193	38.99
619.52	39.05
619.847	39.39
620.174	39.73
620.501	40.01
620.828	40.2
621.155	40.42
621.481	40.72
621.808	40.99
622.135	41.28
622.461	41.41
622.788	42.08
623.114	42.36
623.441	42.49
623.767	42.73
624.093	42.74
624.42	43.12
624.746	43.71
625.072	44.13
625.398	44.23
625.725	44.46
626.051	44.9
626.377	45.11
626.703	45.43
627.029	45.85
627.354	46.33
627.68	46.71
628.006	47.09
628.332	46.92
628.658	47.13
628.983	47.19
629.309	47.29
629.634	47.96
629.96	48.06
630.285	48.52
630.611	49.1
630.936	49.1
631.262	49.32
631.587	49.91
631.912	50.19
632.237	50.88
632.562	51.51
632.887	51.66
633.213	51.35
633.538	51.43
633.863	51.18
634.187	51.67
634.512	52.28
634.837	52.81
635.162	52.93
635.487	52.77
635.811	53.07
636.136	53.11
636.461	53.82
636.785	53.9
637.11	54.49
637.434	55.42
637.758	55.3
638.083	55.68
638.407	55.65
638.731	56.08
639.056	56.98
639.38	57.39
639.704	57.3
640.028	57.67
640.352	57.34
640.676	57.26
641	57.44
641.324	57.75
641.648	57.6
641.972	58.27
642.295	58.4
642.619	58.49
642.943	58.14
643.266	58.7
643.59	59.23
643.913	59.44
644.237	59.31
644.56	59.13
644.884	59.92
645.207	59.9
645.53	59.56
645.854	60.02
646.177	60.07
646.5	60.31
646.823	59.85
647.146	59.1
647.469	58.79
647.792	58.26
648.115	58.7
648.438	59.29
648.761	60.86
649.084	61.22
649.406	61.14
649.729	59.87
650.052	59.35
650.374	59.06
650.697	58.69
651.019	58.82
651.342	58.66
651.664	58.75
651.987	58.85
652.309	58.99
652.631	59.36
652.953	59.35
653.276	59.23
653.598	59.4
653.92	59.37
654.242	59.53
654.564	59.37
654.886	59.45
655.208	59.83
655.53	59.96
655.851	60.19
656.173	60.27
656.495	60.23
656.816	59.57
657.138	59.29
657.46	59.48
657.781	61.68
658.103	63.37
658.424	64.83
658.746	66.67
659.067	66.98
659.388	67.81
659.709	67.74
660.031	68.11
660.352	68.15
660.673	67.05
660.994	67.27
661.315	68.35
661.636	68.59
661.957	68.33
662.278	68.12
662.599	68.67
662.919	68.61
663.24	67.61
663.561	67.81
663.881	67.71
664.202	67.46
664.523	67.21
664.843	67.17
665.164	67.41
665.484	66.97
665.804	67.13
666.125	66.64
666.445	66.4
666.765	66.45
667.085	67.27
667.405	67.33
667.726	68.74
668.046	68.91
668.366	69.29
668.686	69.76
669.005	69.02
669.325	67.76
669.645	67.18
669.965	67.4
670.285	67.02
670.604	66.69
670.924	66.28
671.243	66.46
671.563	66.39
671.882	66.78
672.202	66.27
672.521	66.77
672.841	67.06
673.16	66.45
673.479	66.69
673.798	66.72
674.117	68.17
674.437	68.72
674.756	68.85
675.075	68.59
675.394	68.85
675.713	67.28
676.031	67.26
676.35	66.99
676.669	66.53
676.988	67.49
677.306	68
677.625	69.27
677.944	69.64
678.262	70.38
678.581	70.85
678.899	71.58
679.218	70.68
679.536	70.59
679.854	70.55
680.172	71.2
680.491	70.86
680.809	71.04
681.127	71.34
681.445	71.33
681.763	72.03
682.081	71.67
682.399	72.29
682.717	72.78
683.035	72.86
683.352	72.5
683.67	73.2
683.988	73.45
684.306	73.11
684.623	72.99
684.941	73.01
685.258	73.19
685.576	72.37
685.893	72.56
686.211	72.38
686.528	72.73
686.845	73.36
687.162	74.46
687.48	75.04
687.797	75.52
688.114	74.97
688.431	75
688.748	75.13
689.065	75.2
689.382	75.47
689.699	75.22
690.015	75.25
690.332	74.05
690.649	73.88
690.966	73.74
691.282	74.19
691.599	73.9
691.915	73.09
692.232	74
692.548	74.23
692.865	74.53
693.181	74.25
693.497	75.26
693.813	75.03
694.13	74.47
694.446	74.82
694.762	74.3
695.078	74.28
695.394	75.15
695.71	74.55
696.026	75.22
696.342	75.45
696.658	75.18
696.973	75.28
697.289	75.23
697.605	74.35
697.92	74.35
698.236	75.41
698.551	74.85
698.867	75.06
699.182	76.18
699.498	75.89
699.813	76.92
700.128	76.82
700.444	77.92
700.759	77.15
701.074	78.61
701.389	77.76
701.704	76.29
702.019	77.43
702.334	76.94
702.649	76.9
702.964	76.55
703.279	74.45
703.594	74.86
703.908	74.99
704.223	74.94
704.538	74.82
704.852	74.78
705.167	73.99
705.481	75.35
705.796	75.12
706.11	74.21
706.425	74.24
706.739	73.22
707.053	72.68
707.368	72.9
707.682	71.8
707.996	71.28
708.31	71.54
708.624	70.01
708.938	70.1
709.252	69.26
709.566	70.79
709.88	70.44
710.193	69.33
710.507	68.63
710.821	69.44
711.135	69.72
711.448	69.69
711.762	68.85
712.075	69.57
712.389	70.92
712.702	70.42
713.015	70.58
713.329	69.65
713.642	69.49
713.955	69.59
714.269	68.66
714.582	68.94
714.895	68.56
715.208	70.01
715.521	69.56
715.834	70.44
716.147	69.15
716.459	70.81
716.772	70.37
717.085	71.95
717.398	71.82
717.71	71.28
718.023	72.57
718.336	73.48
718.648	73.79
718.961	74.04
719.273	74.28
719.585	73.73
719.898	72.71
720.21	72.02
720.522	72.44
720.834	71.59
721.147	73.33
721.459	74.23
721.771	75.82
722.083	76.93
722.395	77.64
722.707	78.9
723.019	76.75
723.33	77.37
723.642	76.07
723.954	76.87
724.265	78.38
724.577	77.1
724.889	76.85
725.2	75.97
725.512	76.51
725.823	76.27
726.135	75.42
726.446	75.27
726.757	76.19
727.068	76.63
727.38	77.51
727.691	78.76
728.002	78.38
728.313	78.75
728.624	79.04
728.935	78.5
729.246	77.3
729.557	77.53
729.867	76.77
730.178	76.16
730.489	74.78
730.8	74.91
731.11	75.11
731.421	74.82
731.731	74.65
732.042	73.47
732.352	73.35
732.663	73.12
732.973	73.69
733.283	72.89
733.594	71.55
733.904	70.66
734.214	69.97
734.524	68.84
734.834	67.96
735.144	67.74
735.454	66.47
735.764	66.55
736.074	66.43
736.384	67.36
736.694	67.54
737.003	68.05
737.313	68.04
737.623	69.17
737.932	70.8
738.242	71.75
738.551	71.72
738.861	72.2
739.17	73.28
739.479	74.1
739.789	74.58
740.098	74.75
740.407	74.76
740.716	75.04
741.025	74.89
741.334	78.4
741.643	79.78
741.952	79.21
742.261	81.59
742.57	83.5
742.879	82.96
743.188	82.71
743.497	81.67
743.805	80.9
744.114	81.4
744.422	80.64
744.731	80.02
745.04	79.25
745.348	76.58
745.656	75.96
745.965	75.16
746.273	77.23
746.581	76.66
746.889	76.7
747.198	76.2
747.506	76.09
747.814	76.21
748.122	75.96
748.43	76.37
748.738	77.46
749.046	76.71
749.353	76.68
749.661	76.98
749.969	77.47
750.277	74.44
750.584	75.91
750.892	75.47
751.199	77.17
751.507	78.18
751.814	76.48
752.122	76.78
752.429	80.05
752.736	81.5
753.044	81.84
753.351	82.62
753.658	84.48
753.965	85.16
754.272	84.86
754.579	84.18
754.886	83.01
755.193	82.76
755.5	84.17
755.807	85.03
756.114	84.46
756.42	85.21
756.727	84.8
757.034	87.46
757.34	89.49
757.647	89.77
757.953	89.9
758.26	89.63
758.566	88.7
758.872	86.94
759.179	88.59
759.485	89.33
759.791	89.99
760.097	87.47
760.403	83.63
760.709	85.72
761.015	83.27
761.321	81.18
761.627	79.35
761.933	79.86
762.239	79.93
762.545	80.4
762.851	78.8
763.156	74.94
763.462	73.97
763.767	73.69
764.073	71.76
764.378	71.09
764.684	67.86
764.989	66.23
765.295	64.15
765.6	64.13
765.905	62.4
766.21	66.7
766.515	70.25
766.821	69.83
767.126	68.22
767.431	69.98
767.736	68.74
768.041	69.74
768.345	68.39
768.65	74.55
768.955	73.58
769.26	71.95
769.564	74.19
769.869	75.04
770.174	76.1
770.478	79.75
770.783	84.83
771.087	84.4
771.391	84.71
771.696	88.41
772	97.82
772.304	101.28
772.608	107.04
772.913	112.5
773.217	117.47
773.521	119.43
773.825	117.24
774.129	110.78
774.433	112.68
774.736	117.92
775.04	116.44
775.344	119.31
775.648	123.59
775.951	125.02
776.255	118.66
776.559	120.85
776.862	125.46
777.166	124.6
777.469	125.84
777.772	123.62
778.076	123.43
778.379	121.83
778.682	120.97
778.985	118.34
779.289	114.94
779.592	110.25
779.895	110.98
780.198	107.55
780.501	102.9
780.804	93.46
781.106	90.17
781.409	93.95
781.712	103.88
782.015	100.77
782.317	101.61
782.62	95.89
782.923	101.41
783.225	94.89
783.527	92.61
783.83	90.44
784.132	88.79
784.435	85.19
784.737	83.35
785.039	88.81
785.341	87.81
785.643	84.81
785.945	83.84
786.248	82.06
786.55	86.89
786.851	85.46
787.153	82.24
787.455	82.68
787.757	81.3
788.059	85.27
788.36	91.63
788.662	99.91
788.964	90.43
789.265	82.39
789.567	82.52
789.868	80.18
790.17	83.45
790.471	75.83
790.772	82.51
791.074	86.37
791.375	90.01
791.676	94.5
791.977	105.22
792.278	102.51
792.579	91.16
792.88	91.72
793.181	90.52
793.482	99.59
793.783	103.37
794.083	99.86
794.384	118.76
794.685	126.53
794.986	128.64
795.286	118.79
795.587	109.83
795.887	113.12
796.188	113.49
796.488	121.33
796.788	136.68
797.089	141.71
797.389	149.44
797.689	166.57
797.989	174.65
798.289	177.55
798.589	187.59
798.889	199.38
799.189	197.39
799.489	214.55
799.789	271.33
800.089	306.53
800.389	363.19
800.688	351.15
800.988	301.97
801.288	357.66
801.587	368.59
801.887	336.93
802.186	264.8
802.486	255.74
802.785	414.09
803.085	606.97
803.384	2706.12
803.683	-873.05
803.982	-2798.4
804.281	-1481.45
804.58	-1957.23
804.879	-3238.53
805.178	-1327.43
805.477	880.67
805.776	435.49
806.075	297.46
806.374	224.31
806.673	217.36
806.971	210.46
807.27	177.94
807.569	137.04
807.867	121.77
808.166	130.83
808.464	119.71
808.763	123.42
809.061	117.63
809.359	117.49
809.658	126.41
809.956	137.36
810.254	152.69
810.552	139.76
810.85	148.77
811.148	141.45
811.446	131.99
811.744	126.37
812.042	130.2
812.34	120.59
812.638	128.79
812.935	123.44
813.233	164.3
813.531	170.59
813.828	161.92
814.126	153.78
814.423	152.72
814.721	163.77
815.018	240.15
815.316	195.01
815.613	222.86
815.91	259.82
816.207	297.17
816.504	404.59
816.802	401.69
817.099	445.34
817.396	280.43
817.693	237.19
817.99	279.4
818.286	252.93
818.583	263.71
818.88	405.72
819.177	377.04
819.473	275.06
819.77	356.31
820.067	263.33
820.363	258.04
820.66	253.42
820.956	246.13
821.252	272.98
821.549	293.31
821.845	313.52
822.141	357.45
822.437	328.98
822.734	351.51
823.03	329.95
823.326	303.11
823.622	297.9
823.918	281.95
824.213	273.59
824.509	230.97
824.805	302.24
825.101	309.55
825.397	283.29
825.692	362.92
825.988	406.07
826.283	300.04
826.579	278.18
826.874	488.54
827.17	386.83
827.465	501.7
827.76	696.12
828.056	975.11
828.351	1871.98
828.646	-1585.83
828.941	1550.8
829.236	949.63
829.531	1107.5
829.826	1385.81
830.121	-1751.95
830.416	-954.16
830.711	-314.56
831.006	-397.37
831.3	-691.45
831.595	-641.65
831.89	-568.1
832.184	-923.54
832.479	-1844.27
832.773	-1335.34
833.068	-3950.4
833.362	-9406.56
833.656	4906.09
833.951	-1513.68
834.245	553.61
834.539	3153.04
834.833	910.06
835.127	638.85
835.421	550.15
835.715	648.77
836.009	422.14
836.303	524.19
836.597	528.4
836.891	270.59
837.185	234.69
837.478	210.38
837.772	208.81
838.066	217.1
838.359	195.89
838.653	181.7
838.946	180.12
839.24	142.83
839.533	158.63
839.826	147.24
840.119	134.2
840.413	137.3
840.706	122.93
840.999	106.77
841.292	114.43
841.585	115.9
841.878	97.85
842.171	102.65
842.464	76.78
842.757	83.8
843.049	98.45
843.342	98.97
843.635	103.94
843.927	84.02
844.22	86.81
844.513	81.64
844.805	85.38
845.098	87.25
845.39	72.93
845.682	70.64
845.975	66.13
846.267	67.56
846.559	67.56
846.851	69.55
847.143	70.99
847.435	90.37
847.727	95.02
848.019	99.12
848.311	133.5
848.603	140.75
848.895	165.07
849.186	167.72
849.478	189.77
849.77	207.65
850.061	188
850.353	162.73
850.645	180.05
850.936	165.2
851.227	182.97
851.519	177.81
851.81	171.56
852.101	170.71
852.393	182.14
852.684	221.81
852.975	304.81
853.266	1027.49
853.557	739.07
853.848	910.31
854.139	819.73
854.43	1565.19
854.72	-4001.83
855.011	6367.16
855.302	1136.52
855.593	-1792.76
855.883	125133.33
856.174	515.02
856.464	1587.62
856.755	2696.41
857.045	583.12
857.336	1986.87
857.626	4745.45
857.916	1363.94
858.206	-579.42
858.497	-247.2
858.787	-179.36
859.077	-135.36
859.367	-250.51
859.657	-201.53
859.947	-152.88
860.237	-227.14
860.527	-3694.4
860.816	827.5
861.106	2568.1
861.396	696
861.685	156066.67
861.975	636.86
862.265	-949.65
862.554	-873.93
862.844	497.16
863.133	-3091.74
863.422	-933.52
863.712	-704.73
864.001	474.95
864.29	-872
864.579	-3996.08
864.868	1736.84
865.157	-760.37
865.446	431.58
865.735	193.88
866.024	198.85
866.313	125.42
866.602	350
866.891	145.1
867.179	217.96
867.468	1653.97
