Data from T1_Reflection__14__22-02-51-301.txt Node

Date: Wed Jun 02 22:02:51 CEST 2021
User: mabdelazizm
Spectrometer: FLMS18565
Trigger mode: 0
Integration Time (sec): 2.000000E0
Scans to average: 1
Electric dark correction enabled: true
Nonlinearity correction enabled: false
Boxcar width: 12
XAxis mode: Wavelengths
Number of Pixels in Spectrum: 2048
>>>>>Begin Spectral Data<<<<<
179.071	177.42
179.452	285.38
179.833	180.74
180.214	160
180.595	865.42
180.977	427.64
181.358	251.8
181.739	498.04
182.12	252.49
182.501	259.14
182.882	168.96
183.262	93.33
183.643	41.2
184.024	26.33
184.405	19.52
184.786	8.46
185.166	-0.59
185.547	3.39
185.927	-0.03
186.308	4.17
186.689	7.03
187.069	6.87
187.449	6.95
187.83	6.42
188.21	8.68
188.59	8.39
188.971	10.58
189.351	9.49
189.731	10.14
190.111	10.06
190.491	11.97
190.871	10.7
191.251	9.75
191.631	8.22
192.011	7.07
192.391	6.84
192.771	9.18
193.151	9.66
193.531	8.95
193.91	7.86
194.29	7.52
194.67	6.94
195.049	5.8
195.429	8
195.808	6.41
196.188	7.29
196.567	7.33
196.946	5.96
197.326	4.81
197.705	3.31
198.084	3.43
198.464	3.01
198.843	4.13
199.222	2.94
199.601	4.25
199.98	3.51
200.359	2.92
200.738	3.78
201.117	4.51
201.496	4.47
201.875	3.41
202.254	3.26
202.632	2.57
203.011	1.59
203.39	2.95
203.768	3.83
204.147	5.55
204.525	5.41
204.904	4.35
205.282	4.05
205.661	2.5
206.039	3.81
206.418	4.29
206.796	5.25
207.174	5.98
207.552	7.23
207.931	6.48
208.309	5.58
208.687	5.9
209.065	6.11
209.443	5.52
209.821	5.56
210.199	4.91
210.577	4
210.954	3.61
211.332	4.1
211.71	4.15
212.088	4.55
212.465	5.28
212.843	4.29
213.221	4.33
213.598	4.18
213.976	4.55
214.353	4.7
214.731	4.53
215.108	4.87
215.485	3.56
215.863	3.74
216.24	3.25
216.617	3.01
216.994	2.21
217.371	2.65
217.749	2.99
218.126	3.33
218.503	2.44
218.88	2.23
219.256	2.87
219.633	2.74
220.01	3.39
220.387	3.8
220.764	3.72
221.14	3.68
221.517	3.28
221.894	2.79
222.27	3.43
222.647	3.09
223.023	2.61
223.4	2.74
223.776	3.07
224.153	2.99
224.529	2.85
224.905	3.12
225.282	3.12
225.658	3.09
226.034	2.83
226.41	2.97
226.786	2.99
227.162	2.84
227.538	2.93
227.914	3.01
228.29	2.88
228.666	2.56
229.042	2.62
229.418	2.43
229.793	2.44
230.169	2.23
230.545	2.18
230.92	2.35
231.296	2.4
231.672	2.14
232.047	1.92
232.422	2.01
232.798	1.86
233.173	1.7
233.549	1.63
233.924	1.67
234.299	1.4
234.674	1.39
235.05	1.33
235.425	1.37
235.8	1.3
236.175	1.18
236.55	1.17
236.925	1.06
237.3	1.03
237.675	1
238.049	1.1
238.424	1.15
238.799	1.19
239.174	1.15
239.548	1.2
239.923	1.24
240.297	1.17
240.672	1.15
241.046	1.1
241.421	1.18
241.795	1.12
242.17	1.14
242.544	1.09
242.918	1.14
243.293	1.15
243.667	1.23
244.041	1.2
244.415	1.25
244.789	1.19
245.163	1.16
245.537	1.2
245.911	1.16
246.285	1.21
246.659	1.25
247.033	1.31
247.406	1.34
247.78	1.27
248.154	1.24
248.528	1.2
248.901	1.15
249.275	1.14
249.648	1.18
250.022	1.19
250.395	1.27
250.769	1.31
251.142	1.3
251.515	1.24
251.888	1.25
252.262	1.24
252.635	1.16
253.008	1.21
253.381	1.18
253.754	1.14
254.127	1.2
254.5	1.21
254.873	1.1
255.246	1.13
255.619	1.11
255.992	1.07
256.364	1.05
256.737	1.02
257.11	1.07
257.483	1.01
257.855	1.01
258.228	1.04
258.6	1.02
258.973	1
259.345	1.01
259.718	0.94
260.09	0.95
260.462	0.94
260.834	0.92
261.207	0.95
261.579	0.97
261.951	1.02
262.323	0.95
262.695	0.9
263.067	0.91
263.439	0.87
263.811	0.89
264.183	0.92
264.555	0.86
264.927	0.88
265.298	0.9
265.67	0.86
266.042	0.82
266.413	0.8
266.785	0.85
267.156	0.87
267.528	0.87
267.899	0.85
268.271	0.82
268.642	0.8
269.013	0.8
269.385	0.79
269.756	0.83
270.127	0.89
270.498	0.89
270.87	0.81
271.241	0.79
271.612	0.78
271.983	0.81
272.354	0.83
272.724	0.85
273.095	0.89
273.466	0.91
273.837	0.96
274.208	0.88
274.578	0.86
274.949	0.91
275.32	0.9
275.69	0.86
276.061	0.88
276.431	0.87
276.802	0.84
277.172	0.86
277.542	0.87
277.913	0.84
278.283	0.84
278.653	0.78
279.023	0.78
279.394	0.77
279.764	0.71
280.134	0.71
280.504	0.69
280.874	0.69
281.244	0.69
281.614	0.62
281.983	0.66
282.353	0.58
282.723	0.61
283.093	0.6
283.462	0.58
283.832	0.6
284.202	0.58
284.571	0.57
284.941	0.54
285.31	0.58
285.68	0.58
286.049	0.54
286.418	0.45
286.788	0.47
287.157	0.48
287.526	0.49
287.895	0.52
288.264	0.44
288.633	0.4
289.002	0.41
289.371	0.45
289.74	0.45
290.109	0.41
290.478	0.4
290.847	0.43
291.216	0.36
291.585	0.35
291.953	0.29
292.322	0.28
292.691	0.28
293.059	0.25
293.428	0.25
293.796	0.29
294.165	0.34
294.533	0.25
294.901	0.25
295.27	0.3
295.638	0.32
296.006	0.26
296.374	0.23
296.743	0.2
297.111	0.16
297.479	0.23
297.847	0.2
298.215	0.2
298.583	0.16
298.95	0.15
299.318	0.21
299.686	0.21
300.054	0.2
300.422	0.22
300.789	0.26
301.157	0.23
301.525	0.25
301.892	0.33
302.26	0.32
302.627	0.3
302.994	0.32
303.362	0.33
303.729	0.33
304.097	0.31
304.464	0.31
304.831	0.35
305.198	0.33
305.565	0.37
305.932	0.34
306.299	0.37
306.666	0.37
307.033	0.41
307.4	0.4
307.767	0.42
308.134	0.48
308.501	0.51
308.867	0.5
309.234	0.53
309.601	0.48
309.967	0.47
310.334	0.54
310.701	0.47
311.067	0.44
311.433	0.44
311.8	0.48
312.166	0.45
312.533	0.47
312.899	0.47
313.265	0.45
313.631	0.43
313.997	0.45
314.363	0.44
314.729	0.42
315.096	0.46
315.461	0.48
315.827	0.41
316.193	0.41
316.559	0.48
316.925	0.47
317.291	0.41
317.656	0.39
318.022	0.45
318.388	0.4
318.753	0.42
319.119	0.39
319.484	0.33
319.85	0.33
320.215	0.32
320.581	0.29
320.946	0.25
321.311	0.23
321.676	0.19
322.042	0.19
322.407	0.24
322.772	0.27
323.137	0.28
323.502	0.26
323.867	0.3
324.232	0.33
324.597	0.31
324.962	0.4
325.327	0.38
325.691	0.39
326.056	0.42
326.421	0.47
326.785	0.45
327.15	0.37
327.514	0.39
327.879	0.37
328.243	0.43
328.608	0.44
328.972	0.48
329.337	0.53
329.701	0.6
330.065	0.62
330.429	0.64
330.794	0.6
331.158	0.6
331.522	0.59
331.886	0.57
332.25	0.5
332.614	0.55
332.978	0.51
333.342	0.55
333.705	0.54
334.069	0.52
334.433	0.57
334.797	0.56
335.16	0.52
335.524	0.49
335.887	0.45
336.251	0.5
336.614	0.5
336.978	0.51
337.341	0.52
337.705	0.55
338.068	0.5
338.431	0.46
338.794	0.44
339.158	0.41
339.521	0.38
339.884	0.37
340.247	0.39
340.61	0.34
340.973	0.35
341.336	0.37
341.699	0.39
342.062	0.42
342.424	0.41
342.787	0.35
343.15	0.31
343.512	0.21
343.875	0.15
344.238	0.14
344.6	0.19
344.963	0.22
345.325	0.16
345.688	0.18
346.05	0.18
346.412	0.08
346.775	0.07
347.137	0.08
347.499	0.07
347.861	0.1
348.223	0.11
348.585	0.09
348.947	0.12
349.309	0.05
349.671	0.08
350.033	0.03
350.395	0.02
350.757	-0.03
351.118	0
351.48	-0.05
351.842	-0.01
352.203	-0.01
352.565	0.04
352.927	0.09
353.288	0.12
353.65	0.01
354.011	0.01
354.372	0.02
354.734	-0.02
355.095	-0.03
355.456	-0.01
355.817	-0
356.179	0.05
356.54	0.07
356.901	0.03
357.262	0.02
357.623	0.01
357.984	0.03
358.345	0.11
358.705	0.08
359.066	0.1
359.427	0.1
359.788	0.17
360.148	0.15
360.509	0.06
360.87	0.09
361.23	0.08
361.591	0.12
361.951	0.12
362.312	0.13
362.672	0.17
363.032	0.18
363.393	0.23
363.753	0.25
364.113	0.21
364.473	0.25
364.833	0.28
365.193	0.23
365.553	0.25
365.913	0.18
366.273	0.19
366.633	0.26
366.993	0.22
367.353	0.16
367.713	0.22
368.072	0.2
368.432	0.23
368.792	0.2
369.151	0.15
369.511	0.18
369.87	0.13
370.23	0.16
370.589	0.07
370.949	0.02
371.308	-0.06
371.667	-0.04
372.027	-0.02
372.386	-0.09
372.745	-0.17
373.104	-0.12
373.463	-0.05
373.822	-0.07
374.181	-0.03
374.54	-0.11
374.899	-0.08
375.258	-0.16
375.617	-0.23
375.975	-0.21
376.334	-0.2
376.693	-0.24
377.052	-0.26
377.41	-0.34
377.769	-0.35
378.127	-0.38
378.486	-0.31
378.844	-0.3
379.202	-0.34
379.561	-0.32
379.919	-0.29
380.277	-0.2
380.636	-0.17
380.994	-0.22
381.352	-0.23
381.71	-0.16
382.068	-0.16
382.426	-0.22
382.784	-0.26
383.142	-0.22
383.5	-0.2
383.857	-0.17
384.215	-0.11
384.573	-0.14
384.931	-0.23
385.288	-0.22
385.646	-0.24
386.003	-0.24
386.361	-0.21
386.718	-0.23
387.076	-0.15
387.433	-0.16
387.791	-0.17
388.148	-0.07
388.505	-0.02
388.862	-0.11
389.22	-0.12
389.577	-0.08
389.934	0.02
390.291	0.03
390.648	0.03
391.005	0.04
391.362	-0.01
391.718	0.06
392.075	-0.06
392.432	-0.06
392.789	-0.08
393.145	-0.03
393.502	0
393.859	0.08
394.215	0.19
394.572	0.22
394.928	0.26
395.285	0.25
395.641	0.29
395.997	0.23
396.354	0.25
396.71	0.3
397.066	0.28
397.422	0.29
397.778	0.41
398.134	0.36
398.491	0.35
398.846	0.35
399.202	0.46
399.558	0.52
399.914	0.52
400.27	0.59
400.626	0.56
400.981	0.62
401.337	0.59
401.693	0.66
402.048	0.65
402.404	0.73
402.759	0.72
403.115	0.61
403.47	0.65
403.826	0.68
404.181	0.78
404.536	0.75
404.892	0.81
405.247	0.8
405.602	0.81
405.957	0.8
406.312	0.84
406.667	0.78
407.022	0.88
407.377	0.89
407.732	0.88
408.087	0.83
408.442	0.78
408.796	0.74
409.151	0.71
409.506	0.82
409.86	0.83
410.215	0.95
410.57	0.98
410.924	0.99
411.279	0.98
411.633	1.06
411.987	1.2
412.342	1.19
412.696	1.2
413.05	1.22
413.404	1.27
413.758	1.4
414.113	1.4
414.467	1.42
414.821	1.4
415.175	1.45
415.529	1.51
415.882	1.47
416.236	1.49
416.59	1.42
416.944	1.5
417.298	1.62
417.651	1.69
418.005	1.72
418.358	1.79
418.712	1.86
419.065	1.86
419.419	1.86
419.772	1.88
420.126	1.96
420.479	2.06
420.832	2.04
421.185	2.05
421.539	2.13
421.892	2.06
422.245	2.1
422.598	2.09
422.951	2.25
423.304	2.25
423.657	2.35
424.01	2.36
424.363	2.44
424.715	2.51
425.068	2.52
425.421	2.72
425.773	2.71
426.126	2.79
426.479	2.85
426.831	2.94
427.184	2.89
427.536	2.99
427.889	3.04
428.241	3.11
428.593	3.13
428.945	3.11
429.298	3.16
429.65	3.26
430.002	3.38
430.354	3.51
430.706	3.65
431.058	3.68
431.41	3.68
431.762	3.61
432.114	3.67
432.466	3.71
432.817	3.76
433.169	3.75
433.521	3.75
433.872	3.79
434.224	3.71
434.576	3.77
434.927	3.7
435.279	3.75
435.63	3.66
435.981	3.55
436.333	3.53
436.684	3.55
437.035	3.45
437.387	3.45
437.738	3.45
438.089	3.29
438.44	3.24
438.791	3.12
439.142	2.95
439.493	2.9
439.844	2.91
440.195	2.91
440.545	2.87
440.896	2.82
441.247	2.75
441.598	2.68
441.948	2.68
442.299	2.7
442.649	2.72
443	2.74
443.35	2.72
443.701	2.7
444.051	2.64
444.401	2.69
444.752	2.76
445.102	2.68
445.452	2.56
445.802	2.57
446.152	2.51
446.502	2.48
446.852	2.51
447.202	2.43
447.552	2.45
447.902	2.47
448.252	2.47
448.602	3.45
448.952	3.48
449.301	3.59
449.651	3.65
450.001	3.74
450.35	3.83
450.7	3.85
451.049	3.87
451.399	3.83
451.748	3.88
452.097	3.87
452.447	3.94
452.796	4.01
453.145	4.1
453.494	4.2
453.843	4.32
454.193	4.58
454.542	4.69
454.891	4.8
455.239	4.91
455.588	5.07
455.937	5.27
456.286	5.44
456.635	5.7
456.984	5.77
457.332	4.8
457.681	4.81
458.03	4.82
458.378	4.83
458.727	4.78
459.075	4.78
459.423	4.85
459.772	4.92
460.12	5
460.468	5.08
460.817	5.28
461.165	5.37
461.513	5.47
461.861	5.54
462.209	5.6
462.557	5.64
462.905	5.57
463.253	5.67
463.601	5.67
463.949	5.66
464.297	5.53
464.644	5.52
464.992	5.48
465.34	5.37
465.687	5.3
466.035	5.16
466.383	5.12
466.73	5.2
467.078	5.26
467.425	5.2
467.772	5.11
468.12	5.16
468.467	5.12
468.814	5.04
469.161	4.97
469.508	4.74
469.856	4.52
470.203	4.54
470.55	4.51
470.897	4.33
471.243	4.21
471.59	4.17
471.937	4.06
472.284	4.08
472.631	4.02
472.977	4.04
473.324	3.88
473.671	3.9
474.017	3.9
474.364	3.91
474.71	3.97
475.057	4
475.403	3.84
475.749	3.76
476.096	3.86
476.442	3.9
476.788	3.87
477.134	3.89
477.48	3.97
477.826	4.03
478.172	4.12
478.518	4.19
478.864	4.17
479.21	4.21
479.556	4.36
479.902	4.48
480.248	4.5
480.593	4.6
480.939	4.72
481.285	4.84
481.63	5.03
481.976	5.23
482.321	5.27
482.667	5.39
483.012	5.58
483.357	5.78
483.703	5.92
484.048	6.24
484.393	6.47
484.738	6.76
485.084	6.97
485.429	7.22
485.774	7.44
486.119	7.67
486.464	7.89
486.808	8.12
487.153	8.5
487.498	8.8
487.843	9.06
488.188	9.32
488.532	9.58
488.877	10.03
489.222	10.44
489.566	10.83
489.911	11.22
490.255	11.49
490.6	11.86
490.944	12.32
491.288	12.65
491.633	12.99
491.977	13.29
492.321	13.64
492.665	13.97
493.009	14.32
493.353	14.54
493.697	14.9
494.041	15.17
494.385	15.55
494.729	15.86
495.073	16.2
495.417	16.53
495.76	16.89
496.104	17.22
496.448	17.52
496.791	17.88
497.135	18.25
497.479	18.5
497.822	18.75
498.165	18.9
498.509	19.19
498.852	19.53
499.196	19.78
499.539	19.94
499.882	20.09
500.225	20.29
500.568	20.52
500.911	20.64
501.254	20.76
501.597	20.97
501.94	21.17
502.283	21.26
502.626	21.48
502.969	21.6
503.312	21.78
503.654	21.93
503.997	22.04
504.34	21.99
504.682	22.06
505.025	22.16
505.367	22.22
505.71	22.33
506.052	22.45
506.395	22.5
506.737	22.64
507.079	22.63
507.421	22.64
507.764	22.72
508.106	22.7
508.448	22.8
508.79	22.83
509.132	22.81
509.474	22.86
509.816	22.82
510.158	22.7
510.499	22.62
510.841	22.68
511.183	22.54
511.525	22.51
511.866	22.4
512.208	22.28
512.549	22.29
512.891	22.38
513.232	22.39
513.574	22.33
513.915	22.26
514.256	22.18
514.598	22.12
514.939	22.07
515.28	22.03
515.621	22.04
515.962	21.92
516.303	21.91
516.644	21.99
516.985	21.85
517.326	21.76
517.667	21.71
518.008	21.66
518.349	21.64
518.69	21.59
519.03	21.51
519.371	21.46
519.712	21.44
520.052	21.34
520.393	21.33
520.733	21.33
521.074	21.33
521.414	21.21
521.754	21.13
522.095	21.07
522.435	21.05
522.775	20.98
523.115	20.83
523.455	20.67
523.795	20.6
524.135	20.5
524.475	20.46
524.815	20.37
525.155	20.17
525.495	20.16
525.835	20.11
526.175	19.96
526.514	19.95
526.854	19.93
527.194	19.97
527.533	19.91
527.873	19.8
528.212	19.72
528.552	19.64
528.891	19.65
529.23	19.6
529.57	19.41
529.909	19.3
530.248	19.25
530.587	19.15
530.927	19.09
531.266	19.04
531.605	19.02
531.944	19.08
532.283	18.97
532.621	18.81
532.96	18.68
533.299	18.59
533.638	18.71
533.977	18.67
534.315	18.55
534.654	18.58
534.992	18.49
535.331	18.43
535.67	18.26
536.008	18.13
536.346	18.13
536.685	18.1
537.023	18.01
537.361	17.91
537.7	17.76
538.038	17.69
538.376	17.57
538.714	17.53
539.052	17.45
539.39	17.34
539.728	17.3
540.066	17.26
540.404	17.03
540.741	17
541.079	16.95
541.417	16.97
541.755	16.87
542.092	16.77
542.43	16.76
542.767	16.67
543.105	16.59
543.442	16.56
543.78	16.51
544.117	16.6
544.454	16.66
544.792	16.51
545.129	16.52
545.466	16.46
545.803	16.32
546.14	16.21
546.477	16.21
546.814	16.24
547.151	15.98
547.488	16.09
547.825	16.13
548.162	16.01
548.499	15.91
548.835	15.9
549.172	15.82
549.509	15.92
549.845	15.99
550.182	16.06
550.518	16.01
550.855	15.9
551.191	15.99
551.528	15.92
551.864	15.84
552.2	15.8
552.537	15.61
552.873	15.57
553.209	15.56
553.545	15.41
553.881	15.47
554.217	15.45
554.553	15.36
554.889	15.33
555.225	15.33
555.561	15.53
555.896	15.46
556.232	15.41
556.568	15.3
556.903	15.36
557.239	15.45
557.575	15.45
557.91	15.44
558.245	15.36
558.581	15.37
558.916	15.35
559.252	15.37
559.587	15.22
559.922	15.3
560.257	15.3
560.592	15.42
560.928	15.5
561.263	15.78
561.598	15.88
561.933	15.95
562.267	15.98
562.602	16.2
562.937	16.44
563.272	16.46
563.607	16.61
563.941	16.6
564.276	16.67
564.611	16.73
564.945	16.93
565.28	16.92
565.614	16.86
565.949	17.02
566.283	17.04
566.617	17.19
566.951	17.2
567.286	17.3
567.62	17.35
567.954	17.57
568.288	17.67
568.622	17.74
568.956	17.68
569.29	17.74
569.624	17.58
569.958	17.58
570.292	17.66
570.626	17.82
570.959	17.82
571.293	17.82
571.627	17.9
571.96	17.89
572.294	17.93
572.627	17.96
572.961	17.98
573.294	17.99
573.627	18.08
573.961	18.14
574.294	18.19
574.627	18.27
574.961	18.25
575.294	18.29
575.627	18.31
575.96	18.37
576.293	18.41
576.626	18.4
576.959	18.5
577.292	18.59
577.624	18.7
577.957	18.82
578.29	18.92
578.623	19.02
578.955	18.99
579.288	19.04
579.62	19.14
579.953	19.2
580.285	19.28
580.618	19.31
580.95	19.42
581.282	19.48
581.615	19.62
581.947	19.71
582.279	19.83
582.611	19.9
582.943	19.98
583.275	20.08
583.607	20.19
583.939	20.26
584.271	20.34
584.603	20.49
584.935	20.55
585.267	20.56
585.598	20.64
585.93	20.64
586.262	20.67
586.593	20.81
586.925	20.83
587.256	20.96
587.588	21.09
587.919	21.21
588.25	21.37
588.582	21.47
588.913	21.65
589.244	21.69
589.575	21.9
589.907	22
590.238	22.08
590.569	22.22
590.9	22.34
591.231	22.51
591.562	22.59
591.892	22.69
592.223	22.93
592.554	23.06
592.885	23.11
593.215	23.34
593.546	23.36
593.877	23.46
594.207	23.56
594.538	23.73
594.868	23.83
595.198	24.05
595.529	24.33
595.859	24.48
596.189	24.52
596.52	24.69
596.85	24.84
597.18	24.96
597.51	25.03
597.84	25.09
598.17	25.21
598.5	25.42
598.83	25.59
599.16	25.79
599.489	25.88
599.819	26.01
600.149	26.26
600.479	26.29
600.808	26.56
601.138	26.77
601.467	26.92
601.797	27.28
602.126	27.43
602.456	27.6
602.785	27.77
603.114	28.09
603.443	28.34
603.773	28.43
604.102	28.64
604.431	28.97
604.76	29.14
605.089	29.28
605.418	29.54
605.747	29.89
606.076	30.18
606.405	30.34
606.733	30.53
607.062	30.72
607.391	30.82
607.72	31.07
608.048	31.32
608.377	31.46
608.705	31.82
609.034	32.16
609.362	32.44
609.69	32.68
610.019	33.04
610.347	33.37
610.675	33.67
611.004	33.86
611.332	34.03
611.66	34.35
611.988	34.47
612.316	34.66
612.644	34.89
612.972	34.95
613.3	35.39
613.627	35.68
613.955	35.9
614.283	36.37
614.611	36.7
614.938	36.83
615.266	37.07
615.593	37.59
615.921	37.95
616.248	38.34
616.576	38.74
616.903	39.31
617.23	39.72
617.558	40.39
617.885	40.79
618.212	40.92
618.539	41.37
618.866	41.59
619.193	42.01
619.52	42.15
619.847	42.18
620.174	42.45
620.501	42.67
620.828	42.78
621.155	43.29
621.481	43.42
621.808	43.65
622.135	43.83
622.461	43.67
622.788	43.95
623.114	44.46
623.441	44.59
623.767	44.44
624.093	44.76
624.42	45.15
624.746	45.65
625.072	45.75
625.398	45.85
625.725	45.88
626.051	46.22
626.377	46.78
626.703	47.12
627.029	47.93
627.354	48.34
627.68	48.98
628.006	49.57
628.332	49.94
628.658	50.17
628.983	50.61
629.309	50.8
629.634	51.25
629.96	51.51
630.285	51.99
630.611	52.72
630.936	52.97
631.262	53.01
631.587	53.89
631.912	54.58
632.237	55.18
632.562	55.76
632.887	55.96
633.213	56.22
633.538	56.27
633.863	56.32
634.187	56.7
634.512	57.11
634.837	56.95
635.162	56.96
635.487	57.05
635.811	57.26
636.136	57.46
636.461	57.93
636.785	58.41
637.11	58.68
637.434	59.25
637.758	59.16
638.083	58.66
638.407	58.88
638.731	58.74
639.056	59.22
639.38	59.75
639.704	59.34
640.028	60.24
640.352	59.8
640.676	59.54
641	59.47
641.324	59.93
641.648	60.65
641.972	60.39
642.295	59.81
642.619	59.6
642.943	59.56
643.266	59.87
643.59	60.25
643.913	60.28
644.237	60.01
644.56	59.9
644.884	59.65
645.207	59.53
645.53	59.5
645.854	59.45
646.177	60.39
646.5	60.41
646.823	60.68
647.146	60.32
647.469	59.99
647.792	60.11
648.115	59.82
648.438	60.06
648.761	60.87
649.084	61.03
649.406	61.55
649.729	61.4
650.052	61.65
650.374	61.81
650.697	61.77
651.019	61.83
651.342	61.73
651.664	61.66
651.987	61.58
652.309	61.71
652.631	61.88
652.953	62.01
653.276	62.16
653.598	62.1
653.92	62.04
654.242	62.19
654.564	62.21
654.886	62.27
655.208	62.28
655.53	62.33
655.851	62.34
656.173	62.26
656.495	62.41
656.816	62.32
657.138	62.9
657.46	63.12
657.781	63.82
658.103	64.33
658.424	64.99
658.746	65.66
659.067	65.68
659.388	65.72
659.709	65.79
660.031	65.72
660.352	65.09
660.673	64.34
660.994	64.83
661.315	64.26
661.636	64.54
661.957	65.23
662.278	64.24
662.599	64.33
662.919	63.8
663.24	63.77
663.561	63.9
663.881	64.06
664.202	64.46
664.523	63.77
664.843	63.26
665.164	62.8
665.484	61.5
665.804	61.63
666.125	61.5
666.445	61.9
666.765	61.46
667.085	61.77
667.405	61.83
667.726	62.21
668.046	63.19
668.366	64.24
668.686	64.6
669.005	63.7
669.325	63.53
669.645	62.83
669.965	62.68
670.285	62.8
670.604	62.44
670.924	61.92
671.243	61.64
671.563	61.31
671.882	61.23
672.202	60.91
672.521	61.11
672.841	61.25
673.16	60.99
673.479	61.4
673.798	61.32
674.117	61.81
674.437	61.33
674.756	60.97
675.075	61.29
675.394	61.4
675.713	61.81
676.031	61.76
676.35	61.27
676.669	60.97
676.988	61.5
677.306	61.85
677.625	63.09
677.944	63.36
678.262	63.18
678.581	63.83
678.899	64.77
679.218	64.67
679.536	64.81
679.854	65.17
680.172	65.42
680.491	65.83
680.809	66.14
681.127	65.72
681.445	66.91
681.763	67.41
682.081	66.88
682.399	66.97
682.717	68.25
683.035	68.03
683.352	68.01
683.67	67.54
683.988	67.43
684.306	67.5
684.623	67.23
684.941	67.83
685.258	67.92
685.576	67.71
685.893	68.79
686.211	69.31
686.528	69.43
686.845	69.88
687.162	71.32
687.48	72.03
687.797	72.58
688.114	72.7
688.431	72.64
688.748	72.58
689.065	73.07
689.382	72.33
689.699	72
690.015	72.57
690.332	72.59
690.649	72.15
690.966	71.91
691.282	72.04
691.599	72.72
691.915	72.09
692.232	72.09
692.548	73.25
692.865	73.31
693.181	72.94
693.497	72.49
693.813	71.8
694.13	72.01
694.446	72.45
694.762	71.79
695.078	70.63
695.394	70.6
695.71	69.97
696.026	69.89
696.342	70.25
696.658	70.63
696.973	71.75
697.289	71.91
697.605	71.51
697.92	71.08
698.236	71.91
698.551	72.07
698.867	72.74
699.182	73.51
699.498	73.51
699.813	73.6
700.128	74.2
700.444	73.74
700.759	72.39
701.074	73.29
701.389	73.55
701.704	72.71
702.019	72.94
702.334	72.67
702.649	72.7
702.964	72.74
703.279	72.58
703.594	72.89
703.908	73.1
704.223	72.51
704.538	72.2
704.852	70.74
705.167	70.08
705.481	70.14
705.796	70.37
706.11	70.21
706.425	70.11
706.739	69.51
707.053	69.02
707.368	68.18
707.682	68.56
707.996	67.96
708.31	68.6
708.624	68.62
708.938	68.96
709.252	68.28
709.566	69.03
709.88	68.92
710.193	67.55
710.507	67.21
710.821	67.64
711.135	67.04
711.448	67.04
711.762	67.46
712.075	67.33
712.389	67.3
712.702	67.61
713.015	67.86
713.329	68.1
713.642	67.78
713.955	67.85
714.269	67.26
714.582	67.9
714.895	68.31
715.208	68.74
715.521	68.23
715.834	69.3
716.147	68.38
716.459	68.15
716.772	67.42
717.085	69.36
717.398	68.56
717.71	69.25
718.023	70.71
718.336	70.22
718.648	69.89
718.961	70.62
719.273	69.64
719.585	68.77
719.898	69.25
720.21	70.51
720.522	70.37
720.834	70.47
721.147	71.79
721.459	71.41
721.771	71.4
722.083	71.08
722.395	72.18
722.707	72.19
723.019	71.01
723.33	71.62
723.642	71.44
723.954	73.29
724.265	74.26
724.577	74.24
724.889	73.36
725.2	73.16
725.512	71.95
725.823	71.06
726.135	71.75
726.446	72.63
726.757	73.03
727.068	74.91
727.38	74.24
727.691	74.37
728.002	73.98
728.313	74.54
728.624	74.46
728.935	73.56
729.246	74.3
729.557	73.99
729.867	73.79
730.178	73.25
730.489	72.99
730.8	73.59
731.11	73.03
731.421	72.32
731.731	70.27
732.042	70.43
732.352	70.02
732.663	69.66
732.973	70.06
733.283	70.34
733.594	70.76
733.904	70.1
734.214	70.23
734.524	70.43
734.834	70.5
735.144	71.73
735.454	71.65
735.764	71.59
736.074	71.34
736.384	72.32
736.694	72.25
737.003	71.62
737.313	72.16
737.623	73.8
737.932	74.37
738.242	74.17
738.551	75.3
738.861	76.08
739.17	76.28
739.479	77.87
739.789	77.84
740.098	78.79
740.407	79.37
740.716	79.82
741.025	79.48
741.334	81.34
741.643	84.27
741.952	84.17
742.261	83.45
742.57	82.25
742.879	81.03
743.188	79.37
743.497	77.23
743.805	78.18
744.114	77.27
744.422	77.08
744.731	78.17
745.04	76.78
745.348	73.7
745.656	72.85
745.965	73.55
746.273	72.95
746.581	72.73
746.889	72.31
747.198	71.19
747.506	69.53
747.814	68.61
748.122	68.51
748.43	67.54
748.738	67.57
749.046	66.73
749.353	64.27
749.661	62.81
749.969	63.56
750.277	61.99
750.584	64.31
750.892	65.4
751.199	67.24
751.507	66.78
751.814	65.79
752.122	65.86
752.429	66.1
752.736	67.22
753.044	67.64
753.351	68.37
753.658	67.82
753.965	68.64
754.272	69.35
754.579	70.87
754.886	72.33
755.193	74.1
755.5	74.67
755.807	72.58
756.114	73.35
756.42	74.19
756.727	74.52
757.034	75.59
757.34	77.01
757.647	76.9
757.953	78.22
758.26	76.97
758.566	76.03
758.872	75.09
759.179	76.8
759.485	77.27
759.791	76.81
760.097	74.56
760.403	73.83
760.709	77.21
761.015	75.61
761.321	76.2
761.627	74.42
761.933	73.53
762.239	73.32
762.545	72.19
762.851	70.79
763.156	71.43
763.462	74.32
763.767	73.25
764.073	73.03
764.378	70.38
764.684	69.36
764.989	68.67
765.295	68.77
765.6	67.04
765.905	66.88
766.21	69.44
766.515	72.9
766.821	69.93
767.126	70.28
767.431	71.99
767.736	71.06
768.041	69.76
768.345	68
768.65	72.1
768.955	70.47
769.26	69.79
769.564	72.43
769.869	69.19
770.174	70.4
770.478	72.49
770.783	70.35
771.087	67.41
771.391	69.89
771.696	71.79
772	73.91
772.304	76.56
772.608	78.34
772.913	76.97
773.217	79.91
773.521	78.57
773.825	77.89
774.129	72.88
774.433	75.24
774.736	74.18
775.04	76.78
775.344	82.01
775.648	83.91
775.951	80.14
776.255	74.76
776.559	77.15
776.862	78.31
777.166	76.86
777.469	78.62
777.772	74.94
778.076	70.34
778.379	69.35
778.682	72.73
778.985	73.47
779.289	71.03
779.592	72.92
779.895	72.18
780.198	71.03
780.501	69.09
780.804	63.47
781.106	65
781.409	61.68
781.712	65.72
782.015	63.01
782.317	61.75
782.62	57.61
782.923	60.11
783.225	58.57
783.527	61.64
783.83	55.78
784.132	56.08
784.435	51.89
784.737	53.67
785.039	56.88
785.341	54.21
785.643	57.88
785.945	60.11
786.248	59.03
786.55	56.61
786.851	60.28
787.153	56.93
787.455	54.83
787.757	56
788.059	57.64
788.36	62.76
788.662	63.1
788.964	66.63
789.265	62.77
789.567	63.68
789.868	63.29
790.17	69.15
790.471	65.73
790.772	68.84
791.074	74.41
791.375	82.42
791.676	85.11
791.977	95.79
792.278	91.88
792.579	79.37
792.88	89.18
793.181	84.35
793.482	83.08
793.783	79.13
794.083	75.12
794.384	77.32
794.685	88.27
794.986	94.48
795.286	87.78
795.587	84.36
795.887	87.13
796.188	78.67
796.488	75.69
796.788	84.78
797.089	83.43
797.389	86.16
797.689	86.51
797.989	91.24
798.289	82.13
798.589	71.48
798.889	74.28
799.189	87.44
799.489	99.87
799.789	114.17
800.089	141.31
800.389	159.98
800.688	165.01
800.988	163.59
801.288	212.67
801.587	230.88
801.887	203.15
802.186	155.58
802.486	170.81
802.785	269.31
803.085	450.06
803.384	1968.71
803.683	-688.66
803.982	-2494.4
804.281	-1229.86
804.58	-1672.83
804.879	-2302.75
805.178	-1261.6
805.477	774.7
805.776	441.6
806.075	314.85
806.374	221.95
806.673	151.24
806.971	122.53
807.27	104.82
807.569	95.78
807.867	92.93
808.166	97.23
808.464	91.4
808.763	84.62
809.061	75.16
809.359	80.3
809.658	84.54
809.956	54.05
810.254	46.45
810.552	35.78
810.85	37.43
811.148	54.64
811.446	54.93
811.744	49.62
812.042	47.9
812.34	50.75
812.638	48.93
812.935	51.18
813.233	51.91
813.531	51.35
813.828	56.16
814.126	69.47
814.423	54.99
814.721	44.97
815.018	34.84
815.316	23.12
815.613	21.32
815.91	32.09
816.207	32.24
816.504	65.8
816.802	56.55
817.099	46.32
817.396	81.42
817.693	65.5
817.99	58.03
818.286	59.98
818.583	37.39
818.88	24.86
819.177	38.02
819.473	48.21
819.77	80.79
820.067	43.77
820.363	26
820.66	23.04
820.956	16.08
821.252	13.47
821.549	14.35
821.845	38.9
822.141	61.36
822.437	63.5
822.734	53.24
823.03	85.15
823.326	89.59
823.622	82.2
823.918	79.39
824.213	76.11
824.509	54.38
824.805	33.6
825.101	39.76
825.397	54.06
825.692	72.4
825.988	50.25
826.283	57.62
826.579	60.29
826.874	54.12
827.17	30.22
827.465	6.93
827.76	61.97
828.056	99.24
828.351	259
828.646	-117.06
828.941	154.02
829.236	58.96
829.531	-23.77
829.826	-3.99
830.121	-81.08
830.416	118.67
830.711	157.69
831.006	142.57
831.3	156.72
831.595	161.65
831.89	56.73
832.184	-10.72
832.479	0.79
832.773	-95.89
833.068	155.2
833.362	-993.44
833.656	596.52
833.951	-128.42
834.245	90.24
834.539	123.48
834.833	205.14
835.127	93.4
835.421	92.95
835.715	128.4
836.009	104
836.303	164.92
836.597	240.47
836.891	123.47
837.185	86.55
837.478	77.55
837.772	81.92
838.066	105.67
838.359	104.93
838.653	99.42
838.946	101.57
839.24	84.34
839.533	95.99
839.826	106.44
840.119	101.35
840.413	106.99
840.706	102.58
840.999	100.24
841.292	102.27
841.585	106.47
841.878	107.43
842.171	112.74
842.464	111.38
842.757	106.95
843.049	98.2
843.342	91.51
843.635	90.53
843.927	88.57
844.22	89.43
844.513	99.56
844.805	86.06
845.098	86.39
845.39	76.55
845.682	68.47
845.975	61.51
846.267	69.8
846.559	94.92
846.851	83.76
847.143	79.62
847.435	80.28
847.727	92.36
848.019	90.96
848.311	107.61
848.603	104.68
848.895	140.25
849.186	137.03
849.478	170.52
849.77	172.84
850.061	154.22
850.353	145.95
850.645	150.06
850.936	119.48
851.227	119.52
851.519	125.29
851.81	120.44
852.101	153.09
852.393	175.27
852.684	203.31
852.975	306
853.266	978.71
853.557	716.75
853.848	704.09
854.139	664.95
854.43	1353.98
854.72	-3800
855.011	5608.96
855.302	1019.09
855.593	-1606.33
855.883	119933.33
856.174	486.2
856.464	1276.22
856.755	1894.36
857.045	445.23
857.336	1531.27
857.626	4038.38
857.916	1247.89
858.206	-505.65
858.497	-199.28
858.787	-131.39
859.077	-79.44
859.367	-124.88
859.657	-86.29
859.947	-83.11
860.237	-115.72
860.527	-2225.6
860.816	566.1
861.106	1726.38
861.396	490.37
861.685	94866.67
861.975	400.25
862.265	-558.97
862.554	-577.08
862.844	322.33
863.133	-1877.06
863.422	-540.4
863.712	-559.62
864.001	445.57
864.29	-776
864.579	-3737.25
864.868	1603.51
865.157	-740.09
865.446	553.68
865.735	229.21
866.024	292.22
866.313	213.56
866.602	1090
866.891	448.74
867.179	327.35
867.468	2193.65
