Data from T1_Reflection__120__23-55-35-085.txt Node

Date: Wed Jun 02 23:55:35 CEST 2021
User: mabdelazizm
Spectrometer: FLMS18565
Trigger mode: 0
Integration Time (sec): 2.000000E0
Scans to average: 1
Electric dark correction enabled: true
Nonlinearity correction enabled: false
Boxcar width: 12
XAxis mode: Wavelengths
Number of Pixels in Spectrum: 2048
>>>>>Begin Spectral Data<<<<<
179.071	238.16
179.452	366.4
179.833	234.09
180.214	143.64
180.595	516.82
180.977	234.96
181.358	156.12
181.739	268.63
182.12	158.45
182.501	203.5
182.882	124.08
183.262	138.1
183.643	50.83
184.024	35.85
184.405	30.25
184.786	24.93
185.166	6.64
185.547	8.91
185.927	1.92
186.308	-1.91
186.689	9.06
187.069	8.55
187.449	3.88
187.83	3.63
188.21	1.49
188.59	0.35
188.971	0
189.351	-1.03
189.731	3.71
190.111	6.57
190.491	8.59
190.871	5.81
191.251	6.9
191.631	7.07
192.011	5.14
192.391	5.61
192.771	6.07
193.151	6.9
193.531	7.65
193.91	8.43
194.29	8.56
194.67	8.53
195.049	8.81
195.429	9.86
195.808	9.12
196.188	7.09
196.567	7.12
196.946	6.85
197.326	5.86
197.705	6.47
198.084	6.67
198.464	8.69
198.843	8.79
199.222	8.44
199.601	8.32
199.98	7.37
200.359	8.41
200.738	8.79
201.117	7.67
201.496	8.21
201.875	7.96
202.254	8.2
202.632	7.51
203.011	5.66
203.39	5.52
203.768	5.47
204.147	7.16
204.525	6.23
204.904	6.61
205.282	6.24
205.661	5.57
206.039	6.26
206.418	7.01
206.796	7.71
207.174	8.06
207.552	8.87
207.931	7.82
208.309	9.11
208.687	8.71
209.065	9.23
209.443	8.54
209.821	8.73
210.199	8
210.577	7.66
210.954	7.14
211.332	7.71
211.71	8.14
212.088	8.66
212.465	9.48
212.843	8.57
213.221	8.87
213.598	8.3
213.976	8.16
214.353	8.38
214.731	9.12
215.108	9.38
215.485	8.41
215.863	8.66
216.24	8.35
216.617	8.11
216.994	8.03
217.371	7.7
217.749	6.97
218.126	6.91
218.503	5.66
218.88	6.21
219.256	6.24
219.633	5.88
220.01	6.43
220.387	7.06
220.764	6.11
221.14	5.19
221.517	5.6
221.894	5.24
222.27	6.15
222.647	5.86
223.023	5.26
223.4	5.47
223.776	5.31
224.153	4.89
224.529	4.97
224.905	5.65
225.282	5.32
225.658	5.29
226.034	4.83
226.41	4.47
226.786	4.39
227.162	4.27
227.538	4.3
227.914	4.5
228.29	3.97
228.666	3.51
229.042	3.51
229.418	3.58
229.793	3.3
230.169	3.44
230.545	3.38
230.92	3.1
231.296	3.04
231.672	2.61
232.047	2.29
232.422	2.4
232.798	2.18
233.173	2.06
233.549	1.98
233.924	1.78
234.299	1.3
234.674	1.44
235.05	1.32
235.425	1.47
235.8	1.46
236.175	1.38
236.55	1.34
236.925	1.23
237.3	1.28
237.675	1.3
238.049	1.38
238.424	1.46
238.799	1.4
239.174	1.43
239.548	1.3
239.923	1.36
240.297	1.36
240.672	1.36
241.046	1.43
241.421	1.5
241.795	1.46
242.17	1.53
242.544	1.41
242.918	1.47
243.293	1.52
243.667	1.69
244.041	1.58
244.415	1.59
244.789	1.5
245.163	1.49
245.537	1.56
245.911	1.56
246.285	1.63
246.659	1.6
247.033	1.68
247.406	1.75
247.78	1.66
248.154	1.62
248.528	1.58
248.901	1.61
249.275	1.6
249.648	1.62
250.022	1.6
250.395	1.53
250.769	1.52
251.142	1.59
251.515	1.55
251.888	1.59
252.262	1.53
252.635	1.5
253.008	1.49
253.381	1.42
253.754	1.36
254.127	1.43
254.5	1.45
254.873	1.36
255.246	1.36
255.619	1.34
255.992	1.29
256.364	1.26
256.737	1.26
257.11	1.28
257.483	1.24
257.855	1.25
258.228	1.3
258.6	1.27
258.973	1.31
259.345	1.34
259.718	1.35
260.09	1.36
260.462	1.27
260.834	1.26
261.207	1.28
261.579	1.31
261.951	1.33
262.323	1.26
262.695	1.27
263.067	1.37
263.439	1.33
263.811	1.32
264.183	1.35
264.555	1.3
264.927	1.27
265.298	1.26
265.67	1.24
266.042	1.18
266.413	1.12
266.785	1.13
267.156	1.12
267.528	1.04
267.899	1
268.271	0.95
268.642	0.91
269.013	0.89
269.385	0.9
269.756	0.96
270.127	0.94
270.498	0.92
270.87	0.92
271.241	0.88
271.612	0.89
271.983	0.9
272.354	0.86
272.724	0.86
273.095	0.84
273.466	0.78
273.837	0.83
274.208	0.81
274.578	0.8
274.949	0.85
275.32	0.84
275.69	0.85
276.061	0.84
276.431	0.81
276.802	0.8
277.172	0.82
277.542	0.81
277.913	0.79
278.283	0.79
278.653	0.75
279.023	0.74
279.394	0.77
279.764	0.75
280.134	0.7
280.504	0.76
280.874	0.75
281.244	0.7
281.614	0.64
281.983	0.64
282.353	0.66
282.723	0.71
283.093	0.69
283.462	0.67
283.832	0.7
284.202	0.67
284.571	0.66
284.941	0.63
285.31	0.63
285.68	0.68
286.049	0.71
286.418	0.68
286.788	0.75
287.157	0.67
287.526	0.72
287.895	0.71
288.264	0.75
288.633	0.72
289.002	0.74
289.371	0.76
289.74	0.72
290.109	0.73
290.478	0.8
290.847	0.85
291.216	0.86
291.585	0.8
291.953	0.76
292.322	0.79
292.691	0.81
293.059	0.79
293.428	0.74
293.796	0.75
294.165	0.78
294.533	0.77
294.901	0.75
295.27	0.75
295.638	0.73
296.006	0.67
296.374	0.75
296.743	0.67
297.111	0.73
297.479	0.65
297.847	0.66
298.215	0.65
298.583	0.65
298.95	0.64
299.318	0.69
299.686	0.63
300.054	0.63
300.422	0.61
300.789	0.69
301.157	0.75
301.525	0.71
301.892	0.71
302.26	0.76
302.627	0.83
302.994	0.82
303.362	0.79
303.729	0.78
304.097	0.77
304.464	0.76
304.831	0.8
305.198	0.77
305.565	0.81
305.932	0.82
306.299	0.81
306.666	0.82
307.033	0.79
307.4	0.79
307.767	0.78
308.134	0.82
308.501	0.76
308.867	0.72
309.234	0.71
309.601	0.69
309.967	0.68
310.334	0.68
310.701	0.64
311.067	0.63
311.433	0.61
311.8	0.63
312.166	0.63
312.533	0.72
312.899	0.74
313.265	0.75
313.631	0.73
313.997	0.74
314.363	0.68
314.729	0.69
315.096	0.68
315.461	0.67
315.827	0.63
316.193	0.68
316.559	0.69
316.925	0.7
317.291	0.66
317.656	0.67
318.022	0.77
318.388	0.82
318.753	0.83
319.119	0.79
319.484	0.73
319.85	0.76
320.215	0.76
320.581	0.74
320.946	0.69
321.311	0.72
321.676	0.63
322.042	0.67
322.407	0.72
322.772	0.74
323.137	0.8
323.502	0.83
323.867	0.83
324.232	0.86
324.597	0.91
324.962	0.97
325.327	0.95
325.691	0.98
326.056	0.99
326.421	0.98
326.785	1
327.15	0.94
327.514	0.89
327.879	0.87
328.243	0.87
328.608	0.95
328.972	1
329.337	1.05
329.701	1.06
330.065	1.05
330.429	1.02
330.794	1.08
331.158	1.05
331.522	0.98
331.886	1.02
332.25	0.93
332.614	0.96
332.978	0.93
333.342	0.94
333.705	0.9
334.069	0.82
334.433	0.82
334.797	0.75
335.16	0.71
335.524	0.73
335.887	0.72
336.251	0.71
336.614	0.75
336.978	0.77
337.341	0.77
337.705	0.75
338.068	0.76
338.431	0.73
338.794	0.69
339.158	0.67
339.521	0.64
339.884	0.63
340.247	0.62
340.61	0.64
340.973	0.62
341.336	0.68
341.699	0.67
342.062	0.67
342.424	0.64
342.787	0.62
343.15	0.68
343.512	0.67
343.875	0.63
344.238	0.62
344.6	0.65
344.963	0.66
345.325	0.65
345.688	0.57
346.05	0.6
346.412	0.56
346.775	0.64
347.137	0.57
347.499	0.53
347.861	0.55
348.223	0.55
348.585	0.57
348.947	0.56
349.309	0.55
349.671	0.53
350.033	0.53
350.395	0.46
350.757	0.47
351.118	0.47
351.48	0.43
351.842	0.48
352.203	0.42
352.565	0.45
352.927	0.55
353.288	0.53
353.65	0.4
354.011	0.34
354.372	0.4
354.734	0.42
355.095	0.37
355.456	0.37
355.817	0.26
356.179	0.28
356.54	0.31
356.901	0.31
357.262	0.27
357.623	0.21
357.984	0.2
358.345	0.24
358.705	0.26
359.066	0.21
359.427	0.14
359.788	0.15
360.148	0.15
360.509	0.1
360.87	0.13
361.23	0.17
361.591	0.21
361.951	0.23
362.312	0.36
362.672	0.45
363.032	0.48
363.393	0.46
363.753	0.5
364.113	0.46
364.473	0.53
364.833	0.62
365.193	0.58
365.553	0.65
365.913	0.63
366.273	0.75
366.633	0.88
366.993	0.87
367.353	0.81
367.713	0.8
368.072	0.8
368.432	0.84
368.792	0.79
369.151	0.72
369.511	0.78
369.87	0.74
370.23	0.74
370.589	0.66
370.949	0.62
371.308	0.54
371.667	0.54
372.027	0.57
372.386	0.61
372.745	0.59
373.104	0.62
373.463	0.55
373.822	0.56
374.181	0.62
374.54	0.52
374.899	0.48
375.258	0.39
375.617	0.25
375.975	0.28
376.334	0.32
376.693	0.28
377.052	0.3
377.41	0.31
377.769	0.38
378.127	0.37
378.486	0.36
378.844	0.35
379.202	0.32
379.561	0.34
379.919	0.36
380.277	0.4
380.636	0.5
380.994	0.48
381.352	0.42
381.71	0.39
382.068	0.48
382.426	0.52
382.784	0.52
383.142	0.56
383.5	0.64
383.857	0.7
384.215	0.71
384.573	0.69
384.931	0.6
385.288	0.64
385.646	0.61
386.003	0.61
386.361	0.68
386.718	0.7
387.076	0.79
387.433	0.87
387.791	0.86
388.148	0.93
388.505	0.96
388.862	0.92
389.22	0.97
389.577	0.98
389.934	1.03
390.291	1.06
390.648	1.11
391.005	1.13
391.362	1.18
391.718	1.15
392.075	1.11
392.432	1.14
392.789	1.15
393.145	1.29
393.502	1.38
393.859	1.56
394.215	1.64
394.572	1.77
394.928	1.81
395.285	1.86
395.641	1.88
395.997	1.92
396.354	2.06
396.71	2.16
397.066	2.2
397.422	2.31
397.778	2.49
398.134	2.46
398.491	2.49
398.846	2.54
399.202	2.71
399.558	2.84
399.914	2.9
400.27	3.03
400.626	3.18
400.981	3.23
401.337	3.34
401.693	3.53
402.048	3.62
402.404	3.81
402.759	3.93
403.115	4.05
403.47	4.26
403.826	4.55
404.181	4.74
404.536	4.9
404.892	5.11
405.247	5.19
405.602	5.41
405.957	5.63
406.312	5.82
406.667	5.97
407.022	6.25
407.377	6.43
407.732	6.69
408.087	6.87
408.442	7.04
408.796	7.23
409.151	7.35
409.506	7.62
409.86	7.82
410.215	8.09
410.57	8.31
410.924	8.56
411.279	8.69
411.633	8.92
411.987	9.06
412.342	9.16
412.696	9.24
413.05	9.51
413.404	9.75
413.758	10.08
414.113	10.35
414.467	10.56
414.821	10.74
415.175	10.96
415.529	11.14
415.882	11.35
416.236	11.52
416.59	11.62
416.944	11.79
417.298	12.16
417.651	12.29
418.005	12.55
418.358	12.7
418.712	13.03
419.065	13.17
419.419	13.3
419.772	13.43
420.126	13.71
420.479	13.96
420.832	14.14
421.185	14.3
421.539	14.51
421.892	14.61
422.245	14.85
422.598	14.97
422.951	15.19
423.304	15.37
423.657	15.54
424.01	15.77
424.363	15.99
424.715	16.17
425.068	16.33
425.421	16.61
425.773	16.75
426.126	16.87
426.479	17.06
426.831	17.19
427.184	17.35
427.536	17.41
427.889	17.56
428.241	17.81
428.593	17.93
428.945	18.06
429.298	18.18
429.65	18.39
430.002	18.58
430.354	18.78
430.706	18.9
431.058	18.91
431.41	18.96
431.762	18.96
432.114	18.98
432.466	19.1
432.817	19.11
433.169	19.19
433.521	19.27
433.872	19.36
434.224	19.26
434.576	19.33
434.927	19.17
435.279	19.19
435.63	19.1
435.981	18.98
436.333	19
436.684	18.94
437.035	18.78
437.387	18.71
437.738	18.59
438.089	18.4
438.44	18.27
438.791	18.11
439.142	17.88
439.493	17.83
439.844	17.81
440.195	17.67
440.545	17.53
440.896	17.5
441.247	17.44
441.598	17.34
441.948	17.25
442.299	17.12
442.649	17.01
443	16.98
443.35	16.89
443.701	16.94
444.051	16.91
444.401	16.99
444.752	17.02
445.102	16.9
445.452	16.88
445.802	16.92
446.152	16.95
446.502	17.09
446.852	17.19
447.202	17.28
447.552	17.43
447.902	17.52
448.252	17.46
448.602	18.96
448.952	19.11
449.301	19.32
449.651	19.35
450.001	19.47
450.35	19.6
450.7	19.7
451.049	19.87
451.399	20.01
451.748	20.25
452.097	20.32
452.447	20.46
452.796	20.6
453.145	20.77
453.494	20.86
453.843	21.07
454.193	21.24
454.542	21.35
454.891	21.43
455.239	21.61
455.588	21.89
455.937	22.06
456.286	22.33
456.635	22.61
456.984	22.87
457.332	21.36
457.681	21.35
458.03	21.41
458.378	21.5
458.727	21.53
459.075	21.58
459.423	21.72
459.772	21.84
460.12	21.96
460.468	21.95
460.817	22.3
461.165	22.41
461.513	22.54
461.861	22.71
462.209	22.79
462.557	22.83
462.905	22.84
463.253	22.96
463.601	23.11
463.949	23.02
464.297	22.86
464.644	22.7
464.992	22.49
465.34	22.4
465.687	22.29
466.035	22.08
466.383	22.03
466.73	21.99
467.078	22.01
467.425	21.82
467.772	21.7
468.12	21.55
468.467	21.42
468.814	21.36
469.161	21.19
469.508	20.91
469.856	20.61
470.203	20.49
470.55	20.17
470.897	20.01
471.243	19.88
471.59	19.66
471.937	19.44
472.284	19.25
472.631	19.07
472.977	18.96
473.324	18.95
473.671	18.83
474.017	18.66
474.364	18.51
474.71	18.44
475.057	18.37
475.403	18.17
475.749	18.02
476.096	18.05
476.442	18.03
476.788	18.04
477.134	17.98
477.48	17.91
477.826	18.05
478.172	18.1
478.518	18.18
478.864	18.21
479.21	18.28
479.556	18.4
479.902	18.51
480.248	18.66
480.593	18.78
480.939	18.95
481.285	19.14
481.63	19.28
481.976	19.41
482.321	19.58
482.667	19.71
483.012	19.9
483.357	20.13
483.703	20.31
484.048	20.7
484.393	20.98
484.738	21.28
485.084	21.46
485.429	21.63
485.774	21.88
486.119	22.14
486.464	22.39
486.808	22.59
487.153	22.86
487.498	23.05
487.843	23.3
488.188	23.51
488.532	23.73
488.877	24.03
489.222	24.28
489.566	24.42
489.911	24.65
490.255	24.89
490.6	25.15
490.944	25.38
491.288	25.6
491.633	25.83
491.977	25.97
492.321	26.11
492.665	26.3
493.009	26.39
493.353	26.48
493.697	26.68
494.041	26.75
494.385	26.91
494.729	26.92
495.073	26.98
495.417	27.11
495.76	27.21
496.104	27.28
496.448	27.37
496.791	27.49
497.135	27.63
497.479	27.69
497.822	27.73
498.165	27.85
498.509	27.87
498.852	27.84
499.196	27.81
499.539	27.76
499.882	27.78
500.225	27.81
500.568	27.86
500.911	27.81
501.254	27.69
501.597	27.69
501.94	27.62
502.283	27.51
502.626	27.48
502.969	27.38
503.312	27.43
503.654	27.35
503.997	27.28
504.34	27.16
504.682	27.11
505.025	27.01
505.367	26.94
505.71	26.86
506.052	26.8
506.395	26.72
506.737	26.6
507.079	26.56
507.421	26.48
507.764	26.37
508.106	26.18
508.448	26.17
508.79	26.08
509.132	25.96
509.474	25.93
509.816	25.77
510.158	25.6
510.499	25.48
510.841	25.45
511.183	25.4
511.525	25.34
511.866	25.26
512.208	25.17
512.549	24.98
512.891	24.93
513.232	24.89
513.574	24.82
513.915	24.73
514.256	24.54
514.598	24.48
514.939	24.4
515.28	24.3
515.621	24.2
515.962	24.13
516.303	24.08
516.644	24.1
516.985	23.97
517.326	23.84
517.667	23.73
518.008	23.58
518.349	23.53
518.69	23.46
519.03	23.34
519.371	23.26
519.712	23.26
520.052	23.14
520.393	23.04
520.733	22.88
521.074	22.81
521.414	22.74
521.754	22.54
522.095	22.49
522.435	22.46
522.775	22.43
523.115	22.28
523.455	22.15
523.795	22.04
524.135	21.94
524.475	21.9
524.815	21.81
525.155	21.78
525.495	21.58
525.835	21.5
526.175	21.36
526.514	21.28
526.854	21.26
527.194	21.31
527.533	21.2
527.873	21.02
528.212	20.93
528.552	20.89
528.891	20.77
529.23	20.83
529.57	20.88
529.909	20.76
530.248	20.78
530.587	20.69
530.927	20.58
531.266	20.49
531.605	20.39
531.944	20.36
532.283	20.29
532.621	20.07
532.96	20.06
533.299	20.03
533.638	20.02
533.977	20.03
534.315	19.93
534.654	19.97
534.992	19.93
535.331	19.79
535.67	19.59
536.008	19.54
536.346	19.54
536.685	19.34
537.023	19.14
537.361	18.97
537.7	18.73
538.038	18.59
538.376	18.43
538.714	18.42
539.052	18.3
539.39	18.22
539.728	18.24
540.066	18.22
540.404	18.12
540.741	17.91
541.079	17.83
541.417	17.55
541.755	17.29
542.092	17.14
542.43	17.1
542.767	17.05
543.105	16.97
543.442	16.97
543.78	16.95
544.117	17.03
544.454	16.99
544.792	16.84
545.129	16.9
545.466	16.93
545.803	16.99
546.14	16.92
546.477	16.83
546.814	16.8
547.151	16.64
547.488	16.61
547.825	16.45
548.162	16.35
548.499	16.24
548.835	16.19
549.172	16.25
549.509	16.33
549.845	16.44
550.182	16.58
550.518	16.59
550.855	16.49
551.191	16.53
551.528	16.58
551.864	16.42
552.2	16.33
552.537	16.26
552.873	16.4
553.209	16.48
553.545	16.42
553.881	16.42
554.217	16.4
554.553	16.52
554.889	16.52
555.225	16.64
555.561	16.63
555.896	16.64
556.232	16.73
556.568	16.67
556.903	16.78
557.239	16.76
557.575	16.72
557.91	16.82
558.245	16.92
558.581	16.9
558.916	16.99
559.252	17.04
559.587	16.89
559.922	16.83
560.257	16.96
560.592	17.11
560.928	17.11
561.263	17.18
561.598	17.22
561.933	17.29
562.267	17.4
562.602	17.47
562.937	17.47
563.272	17.53
563.607	17.61
563.941	17.78
564.276	17.93
564.611	17.88
564.945	17.96
565.28	18
565.614	18.13
565.949	18.34
566.283	18.36
566.617	18.4
566.951	18.35
567.286	18.37
567.62	18.45
567.954	18.7
568.288	18.79
568.622	18.76
568.956	18.71
569.29	18.77
569.624	18.67
569.958	18.61
570.292	18.59
570.626	18.73
570.959	18.76
571.293	18.8
571.627	18.82
571.96	18.85
572.294	18.86
572.627	18.83
572.961	18.9
573.294	18.94
573.627	19.02
573.961	19.01
574.294	18.98
574.627	19.02
574.961	19.06
575.294	19.1
575.627	19.07
575.96	19.18
576.293	19.05
576.626	19.03
576.959	19.11
577.292	19.17
577.624	19.18
577.957	19.33
578.29	19.44
578.623	19.53
578.955	19.36
579.288	19.4
579.62	19.51
579.953	19.67
580.285	19.72
580.618	19.8
580.95	19.88
581.282	19.94
581.615	20
581.947	19.96
582.279	19.95
582.611	20.02
582.943	20.13
583.275	20.14
583.607	20.32
583.939	20.44
584.271	20.4
584.603	20.57
584.935	20.61
585.267	20.65
585.598	20.67
585.93	20.77
586.262	20.7
586.593	20.79
586.925	20.78
587.256	21.01
587.588	21.07
587.919	21.19
588.25	21.24
588.582	21.25
588.913	21.22
589.244	21.28
589.575	21.43
589.907	21.58
590.238	21.72
590.569	21.96
590.9	22.06
591.231	22.09
591.562	22.16
591.892	22.16
592.223	22.38
592.554	22.53
592.885	22.58
593.215	22.76
593.546	22.87
593.877	23.01
594.207	23.08
594.538	23.27
594.868	23.38
595.198	23.59
595.529	23.73
595.859	23.87
596.189	23.92
596.52	23.97
596.85	24.16
597.18	24.37
597.51	24.47
597.84	24.59
598.17	24.69
598.5	24.81
598.83	24.96
599.16	25.13
599.489	25.32
599.819	25.49
600.149	25.72
600.479	25.74
600.808	25.89
601.138	26.11
601.467	26.3
601.797	26.57
602.126	26.8
602.456	27.07
602.785	27.27
603.114	27.57
603.443	27.8
603.773	27.98
604.102	28.28
604.431	28.45
604.76	28.62
605.089	28.81
605.418	28.89
605.747	29.12
606.076	29.24
606.405	29.3
606.733	29.54
607.062	29.85
607.391	30.03
607.72	30.27
608.048	30.47
608.377	30.71
608.705	31.08
609.034	31.45
609.362	31.89
609.69	32.14
610.019	32.33
610.347	32.49
610.675	32.67
611.004	32.73
611.332	32.94
611.66	33.21
611.988	33.39
612.316	33.52
612.644	33.69
612.972	33.97
613.3	34.12
613.627	34.55
613.955	34.77
614.283	35.28
614.611	35.62
614.938	35.92
615.266	36.19
615.593	36.58
615.921	36.79
616.248	37.05
616.576	37.4
616.903	37.79
617.23	38.29
617.558	38.83
617.885	39.44
618.212	39.82
618.539	40.27
618.866	40.42
619.193	41.17
619.52	41.19
619.847	41.55
620.174	41.72
620.501	41.68
620.828	41.98
621.155	42.08
621.481	42.68
621.808	42.99
622.135	43.31
622.461	43.3
622.788	43.73
623.114	43.86
623.441	43.85
623.767	44.02
624.093	44.44
624.42	44.93
624.746	45.53
625.072	45.83
625.398	46.22
625.725	46.06
626.051	45.97
626.377	46.64
626.703	47.07
627.029	47.73
627.354	47.61
627.68	48.4
628.006	48.76
628.332	49.03
628.658	49.61
628.983	49.94
629.309	50.28
629.634	50.64
629.96	50.83
630.285	51.28
630.611	51.62
630.936	51.53
631.262	51.65
631.587	52.03
631.912	52.53
632.237	52.94
632.562	53.88
632.887	53.73
633.213	53.84
633.538	53.69
633.863	53.85
634.187	54.27
634.512	54.16
634.837	53.89
635.162	53.73
635.487	54.05
635.811	53.99
636.136	54.14
636.461	55.19
636.785	55.46
637.11	56.06
637.434	56.73
637.758	56.7
638.083	56.72
638.407	57.03
638.731	57.21
639.056	58.1
639.38	59.02
639.704	59.38
640.028	60.02
640.352	59.89
640.676	59.61
641	59.45
641.324	59.59
641.648	59.56
641.972	60.03
642.295	60.39
642.619	60.77
642.943	60.76
643.266	61.18
643.59	61.42
643.913	61.64
644.237	61.72
644.56	61.09
644.884	61.62
645.207	61.5
645.53	61.2
645.854	61.42
646.177	61.5
646.5	61.63
646.823	61.31
647.146	61.1
647.469	60.43
647.792	60.51
648.115	60.56
648.438	60.84
648.761	62.99
649.084	64.37
649.406	64.36
649.729	63.39
650.052	63
650.374	62.82
650.697	62.47
651.019	62.66
651.342	62.67
651.664	62.74
651.987	62.81
652.309	62.85
652.631	63.19
652.953	63.16
653.276	63.21
653.598	63.33
653.92	63.26
654.242	63.51
654.564	63.51
654.886	63.75
655.208	63.82
655.53	63.96
655.851	63.97
656.173	64.02
656.495	64.1
656.816	63.28
657.138	62.75
657.46	62.87
657.781	64.92
658.103	66.82
658.424	68.37
658.746	69.92
659.067	70.5
659.388	70.85
659.709	70.45
660.031	70.72
660.352	70.97
660.673	70.4
660.994	70.61
661.315	71.08
661.636	71.6
661.957	71.54
662.278	71.39
662.599	71.12
662.919	71.39
663.24	71.08
663.561	71.24
663.881	71.32
664.202	71.1
664.523	70.47
664.843	69.91
665.164	69.83
665.484	68.94
665.804	68.86
666.125	68.09
666.445	67.93
666.765	67.69
667.085	67.86
667.405	68.75
667.726	70.51
668.046	70.95
668.366	70.47
668.686	70.1
669.005	69.38
669.325	68.7
669.645	68.47
669.965	68.59
670.285	68.12
670.604	67.87
670.924	66.98
671.243	67.11
671.563	67.15
671.882	66.88
672.202	66.56
672.521	67.34
672.841	67.58
673.16	67.66
673.479	68.56
673.798	68.03
674.117	68.99
674.437	68.79
674.756	69.11
675.075	69.52
675.394	68.04
675.713	67.33
676.031	67.23
676.35	67.93
676.669	67.56
676.988	68.65
677.306	69.63
677.625	70.27
677.944	70.76
678.262	70.76
678.581	71.36
678.899	71.64
679.218	71.37
679.536	72.1
679.854	72.49
680.172	73.26
680.491	72.75
680.809	73.59
681.127	72.95
681.445	72.98
681.763	73.47
682.081	72.2
682.399	72.36
682.717	72.8
683.035	72.69
683.352	72.92
683.67	73.26
683.988	73.77
684.306	73.52
684.623	73.44
684.941	73.78
685.258	72.81
685.576	72.47
685.893	72.56
686.211	73.55
686.528	73.87
686.845	74.76
687.162	75.08
687.48	74.53
687.797	74.1
688.114	73.32
688.431	73.81
688.748	73.76
689.065	74.68
689.382	74.42
689.699	74.74
690.015	75.2
690.332	75.07
690.649	75.1
690.966	74.64
691.282	75.01
691.599	75.31
691.915	74.47
692.232	74.76
692.548	76.14
692.865	75.57
693.181	76.1
693.497	75.96
693.813	75.84
694.13	74.93
694.446	74.97
694.762	75.06
695.078	74.99
695.394	75.72
695.71	75.5
696.026	76.03
696.342	75.92
696.658	76.04
696.973	76.79
697.289	76.14
697.605	75.5
697.92	76.27
698.236	76.79
698.551	76.17
698.867	76.39
699.182	77.72
699.498	77.08
699.813	77.12
700.128	77.6
700.444	77.79
700.759	77.02
701.074	77.08
701.389	77.65
701.704	76.09
702.019	77.75
702.334	76.88
702.649	76.13
702.964	76.17
703.279	74.98
703.594	75.72
703.908	75.72
704.223	75.81
704.538	74.6
704.852	73.03
705.167	72.89
705.481	73.98
705.796	73.91
706.11	72.99
706.425	74.53
706.739	74.32
707.053	74.05
707.368	72.8
707.682	72.59
707.996	72.6
708.31	72.32
708.624	72.69
708.938	72.71
709.252	72.02
709.566	73.07
709.88	72.24
710.193	72.39
710.507	72.34
710.821	73.42
711.135	72.92
711.448	73.28
711.762	73.02
712.075	72.97
712.389	73.72
712.702	73.59
713.015	73.87
713.329	72.64
713.642	71.85
713.955	73.09
714.269	72.05
714.582	72.7
714.895	72.32
715.208	74.61
715.521	74.07
715.834	72.85
716.147	72.31
716.459	71.93
716.772	72.25
717.085	72.66
717.398	72.36
717.71	72.37
718.023	72.7
718.336	73.11
718.648	72.54
718.961	73.66
719.273	72.02
719.585	72.44
719.898	71.86
720.21	71.23
720.522	71.1
720.834	70.93
721.147	71.44
721.459	71.91
721.771	71.67
722.083	70.83
722.395	70.63
722.707	71.74
723.019	70.59
723.33	70.13
723.642	71.29
723.954	71.65
724.265	72.35
724.577	70.6
724.889	70.1
725.2	70.9
725.512	70.52
725.823	71.15
726.135	70.42
726.446	70.39
726.757	70.48
727.068	72.92
727.38	72.44
727.691	72.9
728.002	73.26
728.313	74.37
728.624	74.78
728.935	74.96
729.246	74.78
729.557	75.33
729.867	74.92
730.178	74.05
730.489	73.27
730.8	73.3
731.11	74.1
731.421	73.91
731.731	73.63
732.042	73.2
732.352	74.03
732.663	73.97
732.973	73.7
733.283	72.81
733.594	72.96
733.904	72.57
734.214	72.8
734.524	72.67
734.834	72.38
735.144	71.91
735.454	72.95
735.764	72.87
736.074	72.21
736.384	72.41
736.694	72.39
737.003	71.65
737.313	70.92
737.623	71.52
737.932	72.79
738.242	73.75
738.551	73.72
738.861	74.79
739.17	73.93
739.479	74.76
739.789	74.79
740.098	74.39
740.407	75.15
740.716	75.37
741.025	77.1
741.334	77.19
741.643	79.2
741.952	78.91
742.261	80.84
742.57	80.39
742.879	81.12
743.188	78.55
743.497	77.73
743.805	78.53
744.114	79.22
744.422	78.32
744.731	79.51
745.04	80.67
745.348	78.86
745.656	77.09
745.965	74.88
746.273	74.58
746.581	74.15
746.889	74.45
747.198	71.24
747.506	71.6
747.814	72.21
748.122	72.49
748.43	72.98
748.738	71.86
749.046	71.98
749.353	70.33
749.661	70.79
749.969	71.05
750.277	69.73
750.584	71.14
750.892	71.62
751.199	72.26
751.507	73.02
751.814	71.83
752.122	72.02
752.429	74.53
752.736	74.27
753.044	75.14
753.351	77.61
753.658	79.53
753.965	79.8
754.272	78.86
754.579	79.71
754.886	83.38
755.193	83.09
755.5	83.71
755.807	80.33
756.114	80.08
756.42	80.51
756.727	77.77
757.034	78.65
757.34	79.78
757.647	77.71
757.953	79.41
758.26	77.9
758.566	78.02
758.872	77.77
759.179	77.27
759.485	78.79
759.791	79.18
760.097	76.19
760.403	74.54
760.709	74.35
761.015	72.54
761.321	70.86
761.627	69.9
761.933	71.8
762.239	70.12
762.545	69.13
762.851	70.86
763.156	70.54
763.462	73.36
763.767	75.48
764.073	74.06
764.378	75.69
764.684	73.78
764.989	71.56
765.295	72.55
765.6	68.64
765.905	69.68
766.21	71.54
766.515	74.71
766.821	76.22
767.126	74.92
767.431	76.07
767.736	74.72
768.041	70.84
768.345	74.72
768.65	78.78
768.955	76.26
769.26	76.17
769.564	76.23
769.869	77.06
770.174	75.55
770.478	74.99
770.783	74.99
771.087	75.15
771.391	72.95
771.696	77.32
772	84.42
772.304	90.65
772.608	92.35
772.913	93.6
773.217	99.14
773.521	99.03
773.825	94.79
774.129	92.52
774.433	92.88
774.736	91.5
775.04	95.42
775.344	101.06
775.648	108.66
775.951	106.72
776.255	97.22
776.559	99.16
776.862	100.61
777.166	97.22
777.469	97.7
777.772	97.19
778.076	96.17
778.379	90.01
778.682	89.3
778.985	88.02
779.289	84.56
779.592	78.62
779.895	77.56
780.198	76.81
780.501	72.19
780.804	64.9
781.106	62.39
781.409	65.59
781.712	70.53
782.015	70.57
782.317	69.46
782.62	63.14
782.923	66.7
783.225	66.74
783.527	65.27
783.83	69.28
784.132	67.72
784.435	66.54
784.737	67.48
785.039	72.01
785.341	71.85
785.643	69.84
785.945	73.08
786.248	76.46
786.55	80.6
786.851	82.02
787.153	79.66
787.455	76.64
787.757	72.78
788.059	81.77
788.36	88.99
788.662	97.34
788.964	96.71
789.265	85.05
789.567	77.86
789.868	82.78
790.17	89.41
790.471	86.99
790.772	86.89
791.074	96.93
791.375	92.69
791.676	97.66
791.977	100.77
792.278	96.55
792.579	90.87
792.88	88.82
793.181	90.18
793.482	97.86
793.783	89.95
794.083	76.9
794.384	78.51
794.685	94
794.986	101.87
795.286	98.34
795.587	89.51
795.887	90.04
796.188	87.64
796.488	91.82
796.788	99.97
797.089	104.89
797.389	96.07
797.689	93.82
797.989	93.61
798.289	91.39
798.589	83.1
798.889	81.82
799.189	85.15
799.489	95.94
799.789	114.28
800.089	129.75
800.389	179.21
800.688	173.02
800.988	155.34
801.288	179.02
801.587	204.81
801.887	178.13
802.186	143.97
802.486	136.48
802.785	186.64
803.085	320.92
803.384	1263.27
803.683	-520.15
803.982	-1268
804.281	-811.31
804.58	-1212.14
804.879	-2745.87
805.178	-1492.41
805.477	943.44
805.776	507.76
806.075	349.22
806.374	273.75
806.673	245
806.971	235.02
807.27	188.73
807.569	138.44
807.867	131.97
808.166	132.13
808.464	126.87
808.763	128.66
809.061	115.13
809.359	115.38
809.658	117.35
809.956	132.64
810.254	161.18
810.552	133.14
810.85	132.71
811.148	112.72
811.446	102.77
811.744	100.59
812.042	104.35
812.34	81.16
812.638	83.3
812.935	75.24
813.233	69.16
813.531	91.65
813.828	93.38
814.126	107.66
814.423	98.41
814.721	108.59
815.018	170.62
815.316	99.92
815.613	100.57
815.91	134.1
816.207	143.02
816.504	196.88
816.802	217.71
817.099	264.92
817.396	156.3
817.693	134.76
817.99	148.25
818.286	130.48
818.583	125.47
818.88	209.72
819.177	200.52
819.473	157.65
819.77	219.47
820.067	143.77
820.363	132.28
820.66	132.27
820.956	114.51
821.252	112.6
821.549	110.03
821.845	124.41
822.141	122.89
822.437	90.85
822.734	123.21
823.03	141.69
823.326	106.08
823.622	92.99
823.918	81.39
824.213	85.61
824.509	57.71
824.805	60.75
825.101	59.49
825.397	70.35
825.692	71.06
825.988	123.74
826.283	90
826.579	81.2
826.874	116.25
827.17	88.2
827.465	98.87
827.76	189.43
828.056	245.37
828.351	458.11
828.646	-340.42
828.941	412.18
829.236	239.56
829.531	181.54
829.826	362.08
830.121	-259.76
830.416	-9.06
830.711	37.67
831.006	-4.95
831.3	-78.36
831.595	-5.45
831.89	-60.78
832.184	-242.66
832.479	-348.22
832.773	-96.71
833.068	-602.4
833.362	-1050.82
833.656	752.17
833.951	-118.25
834.245	97.45
834.539	390.43
834.833	363.38
835.127	177.46
835.421	101.43
835.715	97.67
836.009	50.7
836.303	2.4
836.597	-16.47
836.891	51.4
837.185	14.73
837.478	31.33
837.772	34.68
838.066	61.14
838.359	57.79
838.653	52.62
838.946	56.15
839.24	49
839.533	39.36
839.826	55.58
840.119	55.3
840.413	55.71
840.706	45.55
840.999	45.64
841.292	42.85
841.585	30.4
841.878	36.39
842.171	24.29
842.464	21.44
842.757	49.35
843.049	49.48
843.342	53.61
843.635	57.46
843.927	50.44
844.22	57.45
844.513	71.02
844.805	71.06
845.098	73.25
845.39	69.51
845.682	58.98
845.975	56.88
846.267	81.33
846.559	89.21
846.851	94.71
847.143	80.04
847.435	88.98
847.727	82.84
848.019	85.19
848.311	103.59
848.603	98.97
848.895	127.28
849.186	106.31
849.478	115.86
849.77	126.14
850.061	95.44
850.353	90.2
850.645	101.11
850.936	115.76
851.227	142.32
851.519	128.05
851.81	113.8
852.101	122.25
852.393	121.92
852.684	135.43
852.975	248.19
853.266	759.42
853.557	390.59
853.848	434.86
854.139	432.32
854.43	736.58
854.72	-1688.99
855.011	2819.4
855.302	508.11
855.593	-608.6
855.883	75233.33
856.174	326.37
856.464	969.71
856.755	1608.72
857.045	353.87
857.336	1458.3
857.626	3540.4
857.916	1077.46
858.206	-325.35
858.497	-123.36
858.787	-74.96
859.077	-48.66
859.367	-88.23
859.657	-69.61
859.947	-61.16
860.237	-75.21
860.527	-1575.2
860.816	367.8
861.106	1296.32
861.396	277.48
861.685	48033.33
861.975	275.09
862.265	-320.98
862.554	-371.63
862.844	279.43
863.133	-852.29
863.422	-156.16
863.712	-55.84
864.001	75.52
864.29	164
864.579	911.76
864.868	-78.95
865.157	215.21
865.446	17.89
865.735	-23.2
866.024	-4.32
866.313	13.66
866.602	-130
866.891	6.44
867.179	-3.67
867.468	-703.17
