Data from T1_Reflection__127__00-00-27-076.txt Node

Date: Thu Jun 03 00:00:27 CEST 2021
User: mabdelazizm
Spectrometer: FLMS18565
Trigger mode: 0
Integration Time (sec): 2.000000E0
Scans to average: 1
Electric dark correction enabled: true
Nonlinearity correction enabled: false
Boxcar width: 12
XAxis mode: Wavelengths
Number of Pixels in Spectrum: 2048
>>>>>Begin Spectral Data<<<<<
179.071	143.44
179.452	171.94
179.833	151.46
180.214	70.91
180.595	273.83
180.977	374.8
181.358	302.88
181.739	480.39
182.12	202.19
182.501	198.83
182.882	169.05
183.262	151.43
183.643	59.23
184.024	41.38
184.405	38.7
184.786	24.27
185.166	11.54
185.547	13.42
185.927	9.3
186.308	7.29
186.689	16.07
187.069	15.66
187.449	13.58
187.83	16.98
188.21	16.82
188.59	17.91
188.971	19.35
189.351	18.47
189.731	21.89
190.111	22.04
190.491	20.5
190.871	19.26
191.251	19.88
191.631	19.86
192.011	20.2
192.391	18.51
192.771	19.86
193.151	20.73
193.531	19.29
193.91	17.66
194.29	17.58
194.67	16.76
195.049	16.87
195.429	16.91
195.808	17.35
196.188	16.06
196.567	15.01
196.946	14.71
197.326	12.64
197.705	12.65
198.084	11.29
198.464	11.4
198.843	11.06
199.222	9.86
199.601	9.98
199.98	9.17
200.359	8.52
200.738	10.63
201.117	11.11
201.496	10.55
201.875	10.28
202.254	10.1
202.632	9.32
203.011	9.8
203.39	10.27
203.768	10.53
204.147	11.73
204.525	11.22
204.904	10.99
205.282	10.03
205.661	9.51
206.039	10.65
206.418	11.54
206.796	13.11
207.174	12.2
207.552	13.25
207.931	12.6
208.309	13.45
208.687	13.73
209.065	13.89
209.443	13.95
209.821	14.34
210.199	12.71
210.577	11.08
210.954	10.95
211.332	10.69
211.71	10.1
212.088	10.46
212.465	10.41
212.843	10.06
213.221	10.35
213.598	10.94
213.976	10.55
214.353	11.07
214.731	11.16
215.108	11.14
215.485	10.43
215.863	9.88
216.24	8.61
216.617	9.12
216.994	8.34
217.371	8.75
217.749	7.49
218.126	7.36
218.503	6.64
218.88	6.22
219.256	6.2
219.633	5.76
220.01	6.7
220.387	6.92
220.764	6.83
221.14	6.46
221.517	6.18
221.894	5.65
222.27	6.66
222.647	6.74
223.023	5.92
223.4	6.4
223.776	6.73
224.153	6.42
224.529	6.25
224.905	7.01
225.282	6.88
225.658	6.97
226.034	6.79
226.41	6.98
226.786	6.82
227.162	7.03
227.538	7.09
227.914	7.18
228.29	7.18
228.666	6.79
229.042	6.91
229.418	6.71
229.793	6.59
230.169	6.53
230.545	6.53
230.92	6.68
231.296	6.83
231.672	6.64
232.047	6.47
232.422	6.5
232.798	6.27
233.173	6.1
233.549	6.14
233.924	6.09
234.299	5.69
234.674	5.84
235.05	5.77
235.425	5.93
235.8	5.93
236.175	5.96
236.55	5.89
236.925	5.87
237.3	5.76
237.675	5.8
238.049	5.93
238.424	5.99
238.799	6.04
239.174	6.07
239.548	6.04
239.923	6.1
240.297	6.14
240.672	6.06
241.046	5.89
241.421	5.88
241.795	5.87
242.17	5.89
242.544	5.91
242.918	5.91
243.293	5.97
243.667	6.04
244.041	5.97
244.415	6.03
244.789	5.9
245.163	5.92
245.537	5.92
245.911	5.9
246.285	5.88
246.659	6
247.033	6.03
247.406	6.05
247.78	6.01
248.154	5.98
248.528	5.97
248.901	5.94
249.275	5.98
249.648	5.9
250.022	6.01
250.395	6.11
250.769	6.12
251.142	6.18
251.515	6.23
251.888	6.18
252.262	6.17
252.635	6.14
253.008	6.19
253.381	6.14
253.754	6.14
254.127	6.21
254.5	6.16
254.873	6.1
255.246	6.16
255.619	6.22
255.992	6.16
256.364	6.14
256.737	6.14
257.11	6.17
257.483	6.12
257.855	6.09
258.228	6.1
258.6	6.04
258.973	6.07
259.345	6.04
259.718	5.95
260.09	5.96
260.462	5.91
260.834	5.86
261.207	5.86
261.579	5.9
261.951	5.9
262.323	5.83
262.695	5.76
263.067	5.78
263.439	5.71
263.811	5.73
264.183	5.74
264.555	5.66
264.927	5.61
265.298	5.62
265.67	5.6
266.042	5.57
266.413	5.55
266.785	5.56
267.156	5.56
267.528	5.57
267.899	5.57
268.271	5.53
268.642	5.46
269.013	5.52
269.385	5.52
269.756	5.51
270.127	5.45
270.498	5.46
270.87	5.37
271.241	5.34
271.612	5.28
271.983	5.34
272.354	5.28
272.724	5.31
273.095	5.29
273.466	5.26
273.837	5.34
274.208	5.27
274.578	5.19
274.949	5.18
275.32	5.16
275.69	5.11
276.061	5.09
276.431	5.07
276.802	5.03
277.172	5.05
277.542	4.99
277.913	4.96
278.283	4.9
278.653	4.87
279.023	4.87
279.394	4.89
279.764	4.86
280.134	4.89
280.504	4.92
280.874	4.94
281.244	4.89
281.614	4.88
281.983	4.87
282.353	4.86
282.723	4.86
283.093	4.79
283.462	4.8
283.832	4.84
284.202	4.81
284.571	4.76
284.941	4.7
285.31	4.71
285.68	4.73
286.049	4.71
286.418	4.64
286.788	4.72
287.157	4.69
287.526	4.68
287.895	4.61
288.264	4.61
288.633	4.56
289.002	4.56
289.371	4.57
289.74	4.53
290.109	4.5
290.478	4.53
290.847	4.53
291.216	4.48
291.585	4.44
291.953	4.4
292.322	4.41
292.691	4.4
293.059	4.37
293.428	4.29
293.796	4.28
294.165	4.31
294.533	4.29
294.901	4.3
295.27	4.29
295.638	4.26
296.006	4.19
296.374	4.23
296.743	4.21
297.111	4.27
297.479	4.21
297.847	4.19
298.215	4.12
298.583	4.07
298.95	4.09
299.318	4.11
299.686	4.1
300.054	4.1
300.422	4.07
300.789	4.1
301.157	4.11
301.525	4.07
301.892	4.11
302.26	4.11
302.627	4.19
302.994	4.2
303.362	4.18
303.729	4.12
304.097	4.09
304.464	4.05
304.831	4.11
305.198	4.11
305.565	4.11
305.932	4.1
306.299	4.09
306.666	4.12
307.033	4.08
307.4	4.13
307.767	4.12
308.134	4.11
308.501	4.08
308.867	4.04
309.234	4.04
309.601	4.02
309.967	4.04
310.334	4.04
310.701	3.96
311.067	3.94
311.433	3.97
311.8	3.97
312.166	3.95
312.533	3.98
312.899	3.98
313.265	3.97
313.631	4.05
313.997	4.01
314.363	3.93
314.729	3.9
315.096	3.85
315.461	3.83
315.827	3.81
316.193	3.88
316.559	3.87
316.925	3.88
317.291	3.86
317.656	3.82
318.022	3.88
318.388	3.82
318.753	3.79
319.119	3.7
319.484	3.66
319.85	3.74
320.215	3.67
320.581	3.69
320.946	3.63
321.311	3.62
321.676	3.56
322.042	3.6
322.407	3.6
322.772	3.56
323.137	3.58
323.502	3.66
323.867	3.66
324.232	3.72
324.597	3.67
324.962	3.67
325.327	3.66
325.691	3.67
326.056	3.68
326.421	3.69
326.785	3.71
327.15	3.63
327.514	3.6
327.879	3.66
328.243	3.69
328.608	3.73
328.972	3.7
329.337	3.72
329.701	3.6
330.065	3.61
330.429	3.63
330.794	3.64
331.158	3.61
331.522	3.62
331.886	3.63
332.25	3.52
332.614	3.48
332.978	3.42
333.342	3.47
333.705	3.5
334.069	3.41
334.433	3.41
334.797	3.36
335.16	3.33
335.524	3.31
335.887	3.28
336.251	3.34
336.614	3.38
336.978	3.41
337.341	3.38
337.705	3.38
338.068	3.46
338.431	3.47
338.794	3.51
339.158	3.47
339.521	3.4
339.884	3.37
340.247	3.35
340.61	3.28
340.973	3.3
341.336	3.4
341.699	3.43
342.062	3.45
342.424	3.37
342.787	3.33
343.15	3.34
343.512	3.3
343.875	3.27
344.238	3.27
344.6	3.3
344.963	3.32
345.325	3.24
345.688	3.18
346.05	3.13
346.412	3.11
346.775	3.11
347.137	3.02
347.499	3
347.861	3.01
348.223	3.07
348.585	3.14
348.947	3.22
349.309	3.24
349.671	3.26
350.033	3.19
350.395	3.14
350.757	3.11
351.118	3.16
351.48	3.18
351.842	3.21
352.203	3.25
352.565	3.28
352.927	3.37
353.288	3.34
353.65	3.25
354.011	3.24
354.372	3.28
354.734	3.31
355.095	3.37
355.456	3.37
355.817	3.32
356.179	3.3
356.54	3.31
356.901	3.23
357.262	3.17
357.623	3.06
357.984	3.03
358.345	3.06
358.705	3.05
359.066	3.03
359.427	2.99
359.788	3.02
360.148	3
360.509	2.95
360.87	2.96
361.23	2.93
361.591	2.94
361.951	2.93
362.312	2.94
362.672	2.97
363.032	2.94
363.393	2.96
363.753	2.96
364.113	2.91
364.473	2.88
364.833	2.95
365.193	2.95
365.553	2.9
365.913	2.89
366.273	2.92
366.633	3.06
366.993	2.98
367.353	2.9
367.713	2.85
368.072	2.85
368.432	2.84
368.792	2.87
369.151	2.82
369.511	2.85
369.87	2.83
370.23	2.93
370.589	2.85
370.949	2.82
371.308	2.74
371.667	2.72
372.027	2.8
372.386	2.78
372.745	2.75
373.104	2.71
373.463	2.75
373.822	2.7
374.181	2.8
374.54	2.82
374.899	2.89
375.258	2.81
375.617	2.75
375.975	2.78
376.334	2.85
376.693	2.88
377.052	2.85
377.41	2.85
377.769	2.87
378.127	2.83
378.486	2.85
378.844	2.83
379.202	2.7
379.561	2.75
379.919	2.71
380.277	2.73
380.636	2.8
380.994	2.72
381.352	2.68
381.71	2.69
382.068	2.71
382.426	2.63
382.784	2.66
383.142	2.67
383.5	2.64
383.857	2.63
384.215	2.69
384.573	2.58
384.931	2.49
385.288	2.49
385.646	2.44
386.003	2.52
386.361	2.57
386.718	2.49
387.076	2.51
387.433	2.48
387.791	2.56
388.148	2.65
388.505	2.67
388.862	2.62
389.22	2.77
389.577	2.74
389.934	2.82
390.291	2.88
390.648	2.85
391.005	2.91
391.362	2.97
391.718	2.93
392.075	2.82
392.432	2.84
392.789	2.85
393.145	2.89
393.502	2.96
393.859	3.06
394.215	3.15
394.572	3.27
394.928	3.3
395.285	3.34
395.641	3.38
395.997	3.39
396.354	3.47
396.71	3.53
397.066	3.59
397.422	3.64
397.778	3.8
398.134	3.77
398.491	3.86
398.846	3.9
399.202	3.96
399.558	4.1
399.914	4.15
400.27	4.27
400.626	4.37
400.981	4.43
401.337	4.6
401.693	4.73
402.048	4.89
402.404	5.08
402.759	5.16
403.115	5.19
403.47	5.3
403.826	5.42
404.181	5.63
404.536	5.85
404.892	6.06
405.247	6.17
405.602	6.37
405.957	6.53
406.312	6.77
406.667	6.95
407.022	7.17
407.377	7.35
407.732	7.61
408.087	7.88
408.442	8.16
408.796	8.44
409.151	8.69
409.506	9.11
409.86	9.45
410.215	9.76
410.57	10.12
410.924	10.46
411.279	10.76
411.633	11.24
411.987	11.74
412.342	12.02
412.696	12.39
413.05	12.8
413.404	13.14
413.758	13.77
414.113	14.28
414.467	14.72
414.821	15.15
415.175	15.61
415.529	16.04
415.882	16.47
416.236	17
416.59	17.48
416.944	17.91
417.298	18.43
417.651	18.88
418.005	19.3
418.358	19.73
418.712	20.3
419.065	20.72
419.419	21.05
419.772	21.5
420.126	22.07
420.479	22.58
420.832	23
421.185	23.44
421.539	23.87
421.892	24.28
422.245	24.78
422.598	25.18
422.951	25.72
423.304	26.08
423.657	26.59
424.01	27
424.363	27.53
424.715	28.05
425.068	28.41
425.421	28.85
425.773	29.27
426.126	29.76
426.479	30.21
426.831	30.61
427.184	30.93
427.536	31.21
427.889	31.6
428.241	32.14
428.593	32.49
428.945	32.79
429.298	33.1
429.65	33.4
430.002	33.92
430.354	34.48
430.706	34.76
431.058	35.16
431.41	35.44
431.762	35.62
432.114	36.08
432.466	36.43
432.817	36.76
433.169	37.17
433.521	37.51
433.872	37.89
434.224	38.09
434.576	38.39
434.927	38.54
435.279	38.82
435.63	39.18
435.981	39.43
436.333	39.82
436.684	40.13
437.035	40.22
437.387	40.43
437.738	40.64
438.089	40.72
438.44	41.03
438.791	41.16
439.142	41.09
439.493	41.4
439.844	41.5
440.195	41.66
440.545	41.79
440.896	41.7
441.247	41.8
441.598	41.99
441.948	42.08
442.299	42.24
442.649	42.37
443	42.58
443.35	42.71
443.701	42.88
444.051	43.09
444.401	43.12
444.752	43.17
445.102	43.2
445.452	43.2
445.802	43.39
446.152	43.42
446.502	43.49
446.852	43.68
447.202	43.71
447.552	43.89
447.902	44.04
448.252	44.08
448.602	45.56
448.952	45.68
449.301	45.75
449.651	45.93
450.001	45.95
450.35	45.98
450.7	46.13
451.049	46.06
451.399	46.05
451.748	46.11
452.097	46.08
452.447	46.1
452.796	45.85
453.145	45.93
453.494	45.91
453.843	45.77
454.193	45.82
454.542	45.67
454.891	45.74
455.239	45.71
455.588	45.73
455.937	45.68
456.286	45.58
456.635	45.53
456.984	45.54
457.332	43.84
457.681	43.69
458.03	43.62
458.378	43.51
458.727	43.42
459.075	43.48
459.423	43.24
459.772	43.19
460.12	43.14
460.468	43.1
460.817	43.14
461.165	43.05
461.513	43.1
461.861	43.15
462.209	43.22
462.557	43.21
462.905	43.16
463.253	43.2
463.601	43.05
463.949	42.93
464.297	42.68
464.644	42.47
464.992	42.26
465.34	42.3
465.687	42.06
466.035	41.88
466.383	41.8
466.73	41.73
467.078	41.67
467.425	41.58
467.772	41.36
468.12	41.26
468.467	41.29
468.814	41.42
469.161	41.25
469.508	41.02
469.856	40.79
470.203	40.78
470.55	40.39
470.897	40.13
471.243	40.03
471.59	39.78
471.937	39.54
472.284	39.43
472.631	39.27
472.977	39.39
473.324	39.22
473.671	39.14
474.017	38.87
474.364	38.63
474.71	38.56
475.057	38.48
475.403	38.23
475.749	37.98
476.096	37.78
476.442	37.64
476.788	37.58
477.134	37.34
477.48	37.02
477.826	36.87
478.172	36.72
478.518	36.6
478.864	36.34
479.21	36.28
479.556	36.24
479.902	36.03
480.248	35.82
480.593	35.76
480.939	35.69
481.285	35.65
481.63	35.39
481.976	35.31
482.321	35.11
482.667	35.06
483.012	34.94
483.357	34.75
483.703	34.6
484.048	34.61
484.393	34.44
484.738	34.44
485.084	34.24
485.429	34
485.774	33.85
486.119	33.72
486.464	33.58
486.808	33.43
487.153	33.36
487.498	33.17
487.843	33
488.188	32.72
488.532	32.57
488.877	32.51
489.222	32.35
489.566	32.07
489.911	31.76
490.255	31.54
490.6	31.34
490.944	31.22
491.288	30.99
491.633	30.83
491.977	30.71
492.321	30.42
492.665	30.23
493.009	30.22
493.353	29.94
493.697	29.8
494.041	29.61
494.385	29.52
494.729	29.33
495.073	29.17
495.417	29.11
495.76	28.86
496.104	28.76
496.448	28.62
496.791	28.49
497.135	28.32
497.479	28.07
497.822	27.94
498.165	27.83
498.509	27.79
498.852	27.6
499.196	27.43
499.539	27.25
499.882	27.12
500.225	27.01
500.568	26.87
500.911	26.71
501.254	26.52
501.597	26.36
501.94	26.24
502.283	26.12
502.626	26.01
502.969	25.81
503.312	25.7
503.654	25.53
503.997	25.28
504.34	25.13
504.682	24.99
505.025	24.83
505.367	24.68
505.71	24.52
506.052	24.45
506.395	24.27
506.737	24.16
507.079	23.96
507.421	23.9
507.764	23.81
508.106	23.66
508.448	23.52
508.79	23.38
509.132	23.24
509.474	23.21
509.816	23.02
510.158	22.82
510.499	22.71
510.841	22.6
511.183	22.45
511.525	22.39
511.866	22.21
512.208	22.06
512.549	21.98
512.891	21.9
513.232	21.79
513.574	21.74
513.915	21.64
514.256	21.57
514.598	21.5
514.939	21.41
515.28	21.27
515.621	21.18
515.962	21.06
516.303	20.93
516.644	20.88
516.985	20.77
517.326	20.75
517.667	20.7
518.008	20.56
518.349	20.53
518.69	20.5
519.03	20.38
519.371	20.27
519.712	20.2
520.052	20.11
520.393	20.08
520.733	20
521.074	19.94
521.414	19.86
521.754	19.76
522.095	19.67
522.435	19.74
522.775	19.75
523.115	19.68
523.455	19.61
523.795	19.5
524.135	19.38
524.475	19.28
524.815	19.26
525.155	19.12
525.495	19.06
525.835	18.91
526.175	18.8
526.514	18.79
526.854	18.78
527.194	18.76
527.533	18.78
527.873	18.66
528.212	18.66
528.552	18.55
528.891	18.52
529.23	18.59
529.57	18.58
529.909	18.5
530.248	18.54
530.587	18.45
530.927	18.31
531.266	18.14
531.605	18.01
531.944	18
532.283	18.03
532.621	18
532.96	18.05
533.299	18
533.638	17.99
533.977	17.81
534.315	17.73
534.654	17.83
534.992	17.74
535.331	17.52
535.67	17.35
536.008	17.14
536.346	17.07
536.685	16.93
537.023	16.84
537.361	16.79
537.7	16.65
538.038	16.43
538.376	16.29
538.714	16.21
539.052	16.09
539.39	16.01
539.728	15.99
540.066	16
540.404	15.8
540.741	15.64
541.079	15.61
541.417	15.38
541.755	15.2
542.092	15.14
542.43	15.12
542.767	15.09
543.105	14.88
543.442	14.84
543.78	14.91
544.117	14.94
544.454	15.04
544.792	15.01
545.129	15.14
545.466	15.07
545.803	14.88
546.14	14.75
546.477	14.82
546.814	14.85
547.151	14.65
547.488	14.69
547.825	14.63
548.162	14.59
548.499	14.63
548.835	14.65
549.172	14.54
549.509	14.46
549.845	14.55
550.182	14.65
550.518	14.65
550.855	14.72
551.191	14.74
551.528	14.83
551.864	14.8
552.2	14.8
552.537	14.76
552.873	14.73
553.209	14.77
553.545	14.67
553.881	14.75
554.217	14.83
554.553	14.83
554.889	14.71
555.225	14.72
555.561	14.82
555.896	14.78
556.232	14.83
556.568	14.81
556.903	14.72
557.239	14.71
557.575	14.8
557.91	14.88
558.245	14.92
558.581	15
558.916	15.03
559.252	15.09
559.587	15.01
559.922	14.97
560.257	15.04
560.592	15.06
560.928	15.09
561.263	15.2
561.598	15.09
561.933	15.05
562.267	15.1
562.602	15.15
562.937	15.32
563.272	15.48
563.607	15.65
563.941	15.71
564.276	15.76
564.611	15.73
564.945	15.8
565.28	15.78
565.614	15.89
565.949	16.04
566.283	16.14
566.617	16.2
566.951	16.03
567.286	16.07
567.62	16.09
567.954	16.23
568.288	16.27
568.622	16.37
568.956	16.38
569.29	16.47
569.624	16.42
569.958	16.53
570.292	16.6
570.626	16.65
570.959	16.7
571.293	16.78
571.627	16.75
571.96	16.77
572.294	16.8
572.627	16.83
572.961	16.92
573.294	17.03
573.627	17.15
573.961	17.16
574.294	17.12
574.627	17.17
574.961	17.15
575.294	17.26
575.627	17.22
575.96	17.32
576.293	17.31
576.626	17.33
576.959	17.31
577.292	17.32
577.624	17.34
577.957	17.44
578.29	17.54
578.623	17.62
578.955	17.56
579.288	17.61
579.62	17.62
579.953	17.7
580.285	17.72
580.618	17.78
580.95	17.87
581.282	17.92
581.615	17.85
581.947	17.86
582.279	17.99
582.611	18.06
582.943	18.07
583.275	18.18
583.607	18.39
583.939	18.53
584.271	18.54
584.603	18.7
584.935	18.77
585.267	18.82
585.598	19.01
585.93	19.06
586.262	19.05
586.593	19.22
586.925	19.2
587.256	19.39
587.588	19.53
587.919	19.74
588.25	19.92
588.582	19.96
588.913	20.03
589.244	20.1
589.575	20.2
589.907	20.45
590.238	20.56
590.569	20.64
590.9	20.79
591.231	20.95
591.562	20.98
591.892	21
592.223	21.24
592.554	21.4
592.885	21.46
593.215	21.53
593.546	21.63
593.877	21.64
594.207	21.8
594.538	21.94
594.868	21.98
595.198	22.26
595.529	22.44
595.859	22.56
596.189	22.48
596.52	22.45
596.85	22.74
597.18	22.91
597.51	23.09
597.84	23.15
598.17	23.25
598.5	23.36
598.83	23.51
599.16	23.8
599.489	23.97
599.819	24.11
600.149	24.25
600.479	24.28
600.808	24.44
601.138	24.59
601.467	24.84
601.797	25.05
602.126	25.31
602.456	25.44
602.785	25.71
603.114	26
603.443	26.19
603.773	26.39
604.102	26.61
604.431	26.98
604.76	27.28
605.089	27.28
605.418	27.48
605.747	27.66
606.076	27.93
606.405	28.11
606.733	28.18
607.062	28.41
607.391	28.49
607.72	28.62
608.048	29.11
608.377	29.4
608.705	29.84
609.034	30.09
609.362	30.52
609.69	30.83
610.019	31.28
610.347	31.49
610.675	31.76
611.004	32.07
611.332	32.34
611.66	32.65
611.988	32.76
612.316	32.9
612.644	33.14
612.972	33.3
613.3	33.57
613.627	33.85
613.955	34.11
614.283	34.56
614.611	34.8
614.938	35.37
615.266	35.75
615.593	36.09
615.921	36.42
616.248	36.49
616.576	36.85
616.903	37.17
617.23	37.84
617.558	38.19
617.885	38.53
618.212	38.57
618.539	39
618.866	39.17
619.193	39.43
619.52	39.31
619.847	39.45
620.174	39.77
620.501	39.99
620.828	40.04
621.155	40.5
621.481	40.99
621.808	41.26
622.135	41.57
622.461	41.67
622.788	42.16
623.114	42.45
623.441	42.46
623.767	42.62
624.093	42.99
624.42	43.51
624.746	44.16
625.072	44.54
625.398	44.87
625.725	45.16
626.051	45.74
626.377	46.33
626.703	46.87
627.029	47.45
627.354	47.49
627.68	48.4
628.006	49.1
628.332	49.57
628.658	50.13
628.983	50.77
629.309	50.96
629.634	51.4
629.96	51.66
630.285	52.43
630.611	52.68
630.936	52.95
631.262	53.5
631.587	54.13
631.912	54.94
632.237	55.78
632.562	56.56
632.887	56.16
633.213	56.16
633.538	56.37
633.863	56.26
634.187	56.34
634.512	56.9
634.837	56.82
635.162	57.13
635.487	57.44
635.811	57.49
636.136	58.31
636.461	58.8
636.785	58.95
637.11	59.48
637.434	59.85
637.758	59.81
638.083	59.97
638.407	59.99
638.731	60.64
639.056	61.05
639.38	61.11
639.704	60.98
640.028	61.43
640.352	61.48
640.676	61.48
641	61.58
641.324	61.81
641.648	61.72
641.972	62.48
642.295	62.45
642.619	62.78
642.943	62.92
643.266	62.94
643.59	63.29
643.913	63.2
644.237	62.26
644.56	61.97
644.884	61.85
645.207	61.5
645.53	61.85
645.854	62.18
646.177	62.63
646.5	63.19
646.823	63.39
647.146	62.91
647.469	62.73
647.792	62.82
648.115	62.62
648.438	62.7
648.761	63.96
649.084	65.05
649.406	65.54
649.729	64.76
650.052	64.33
650.374	64.48
650.697	64.08
651.019	64.27
651.342	64.34
651.664	64.63
651.987	64.78
652.309	64.84
652.631	65.24
652.953	65.55
653.276	65.7
653.598	65.75
653.92	65.76
654.242	65.94
654.564	65.88
654.886	65.87
655.208	66.03
655.53	66.12
655.851	66.26
656.173	66.32
656.495	66.33
656.816	66.14
657.138	66.26
657.46	66.39
657.781	68.29
658.103	70.54
658.424	71.54
658.746	72.68
659.067	72.84
659.388	73.51
659.709	73.06
660.031	72.88
660.352	73.73
660.673	72.77
660.994	73.44
661.315	73.17
661.636	73.37
661.957	73.24
662.278	72.75
662.599	72.52
662.919	72.12
663.24	72.33
663.561	72.8
663.881	72.61
664.202	73.25
664.523	73.05
664.843	72.14
665.164	71.43
665.484	71.15
665.804	71.37
666.125	70.86
666.445	71.07
666.765	71.43
667.085	71.52
667.405	71.35
667.726	71.99
668.046	72.96
668.366	72.65
668.686	73.37
669.005	71.67
669.325	71.75
669.645	71.43
669.965	71.68
670.285	71.61
670.604	70.87
670.924	71.02
671.243	71.14
671.563	71.51
671.882	71.83
672.202	71.16
672.521	71.63
672.841	72.12
673.16	71.92
673.479	71.8
673.798	71.42
674.117	72.08
674.437	72.22
674.756	72.29
675.075	72.49
675.394	71.56
675.713	70.58
676.031	70.94
676.35	70.89
676.669	69.96
676.988	71.12
677.306	71.46
677.625	72.58
677.944	72.94
678.262	73.32
678.581	73.82
678.899	73.94
679.218	73.25
679.536	73.01
679.854	73.05
680.172	73.21
680.491	72.51
680.809	72.25
681.127	72.64
681.445	73.99
681.763	74.39
682.081	73.52
682.399	73.45
682.717	73.71
683.035	73.58
683.352	74.06
683.67	74.74
683.988	74.34
684.306	74.72
684.623	75.19
684.941	75.05
685.258	75.21
685.576	75.05
685.893	74.75
686.211	74.59
686.528	75.28
686.845	75.74
687.162	76.9
687.48	76.8
687.797	76.71
688.114	76.15
688.431	77.14
688.748	77.67
689.065	77.87
689.382	76.45
689.699	76.86
690.015	76.64
690.332	76.69
690.649	76.29
690.966	76.25
691.282	77.45
691.599	77.64
691.915	76.59
692.232	76.24
692.548	76.08
692.865	75.94
693.181	75.7
693.497	75.17
693.813	76.18
694.13	76.26
694.446	76.23
694.762	76.16
695.078	75.33
695.394	76.08
695.71	75.87
696.026	76.56
696.342	77.01
696.658	77.04
696.973	77.73
697.289	77.89
697.605	76.66
697.92	77.09
698.236	77.37
698.551	77.55
698.867	77.56
699.182	77.98
699.498	77.78
699.813	79.15
700.128	79.15
700.444	78.84
700.759	77.39
701.074	77.52
701.389	77.53
701.704	76.2
702.019	75.92
702.334	75.8
702.649	75.9
702.964	76.62
703.279	75.35
703.594	75.55
703.908	75
704.223	74.97
704.538	73.97
704.852	72.89
705.167	72.7
705.481	74.44
705.796	74.51
706.11	74.56
706.425	75.58
706.739	75.36
707.053	75.71
707.368	75.61
707.682	75.25
707.996	75.36
708.31	75.63
708.624	76.83
708.938	77.4
709.252	76.59
709.566	77.56
709.88	78.21
710.193	77.47
710.507	76.74
710.821	76.82
711.135	76.18
711.448	76.87
711.762	78.4
712.075	78.37
712.389	79.5
712.702	79.52
713.015	79.12
713.329	77.84
713.642	78.69
713.955	78.06
714.269	76.9
714.582	77.13
714.895	76.4
715.208	77.1
715.521	76.7
715.834	76.75
716.147	77.2
716.459	76.8
716.772	76.22
717.085	78.49
717.398	77.5
717.71	75.34
718.023	76.08
718.336	76.43
718.648	76.26
718.961	76.46
719.273	76.29
719.585	74.46
719.898	73.51
720.21	72.93
720.522	71.09
720.834	71.59
721.147	72.97
721.459	73.5
721.771	75.76
722.083	76.23
722.395	76.8
722.707	78.44
723.019	78.42
723.33	78.56
723.642	78.87
723.954	79.08
724.265	80.11
724.577	79.58
724.889	78.33
725.2	79.18
725.512	81.77
725.823	81.83
726.135	82.43
726.446	82.44
726.757	82.75
727.068	83.12
727.38	82.72
727.691	82.02
728.002	82.27
728.313	84.24
728.624	84.87
728.935	83.74
729.246	82.31
729.557	81.44
729.867	81.13
730.178	80.15
730.489	79.1
730.8	77.82
731.11	77.29
731.421	77.04
731.731	76.78
732.042	76.49
732.352	76.29
732.663	76.18
732.973	75.59
733.283	75.13
733.594	74.36
733.904	73.34
734.214	73.35
734.524	73.87
734.834	73.46
735.144	74.06
735.454	75.57
735.764	75.67
736.074	75.65
736.384	75.1
736.694	75.49
737.003	75.57
737.313	75.22
737.623	75.38
737.932	76.66
738.242	76.62
738.551	77.77
738.861	79.31
739.17	79.79
739.479	80.5
739.789	80.25
740.098	80.7
740.407	80.55
740.716	82.37
741.025	82.04
741.334	85.64
741.643	86.56
741.952	84.37
742.261	84.82
742.57	84.69
742.879	84.5
743.188	83.29
743.497	81.22
743.805	81.59
744.114	83.56
744.422	85.36
744.731	86.75
745.04	87.66
745.348	87.51
745.656	84.88
745.965	83.68
746.273	83.46
746.581	83.9
746.889	83.41
747.198	81.02
747.506	81.27
747.814	82.13
748.122	83.65
748.43	83.69
748.738	82.92
749.046	80.89
749.353	81.02
749.661	83.51
749.969	82.41
750.277	81.25
750.584	83.27
750.892	81.78
751.199	83.61
751.507	82.68
751.814	81.49
752.122	79.14
752.429	80.98
752.736	80.46
753.044	78.87
753.351	81.73
753.658	84.66
753.965	86.89
754.272	84.29
754.579	84.54
754.886	87.01
755.193	87.9
755.5	88.25
755.807	87.05
756.114	86.45
756.42	88.78
756.727	88.01
757.034	87.29
757.34	88.93
757.647	91.16
757.953	92.28
758.26	91.01
758.566	90.57
758.872	90.7
759.179	93.83
759.485	93.72
759.791	95.04
760.097	90.11
760.403	89.04
760.709	91.9
761.015	90.31
761.321	87.49
761.627	84.7
761.933	85.57
762.239	84.32
762.545	82.44
762.851	81.26
763.156	80.27
763.462	80.41
763.767	78.65
764.073	77.38
764.378	75.97
764.684	74.2
764.989	70.71
765.295	70.19
765.6	69.03
765.905	69.18
766.21	73.88
766.515	75.67
766.821	70.83
767.126	68.94
767.431	70.95
767.736	73.43
768.041	73.47
768.345	73.96
768.65	77.69
768.955	76.96
769.26	75.78
769.564	76.99
769.869	80.21
770.174	81.5
770.478	83.79
770.783	85.29
771.087	85.62
771.391	88.36
771.696	86.22
772	93.61
772.304	99.76
772.608	105.05
772.913	103.26
773.217	103.02
773.521	101.13
773.825	95.71
774.129	93.42
774.433	100.6
774.736	104.14
775.04	105.34
775.344	112.08
775.648	110.89
775.951	108.4
776.255	101.4
776.559	104.68
776.862	106.96
777.166	106.93
777.469	104.78
777.772	105.18
778.076	99.38
778.379	95.37
778.682	92.37
778.985	93.97
779.289	95.78
779.592	95.44
779.895	98.28
780.198	97.46
780.501	94.8
780.804	89.05
781.106	90.19
781.409	96.52
781.712	104.98
782.015	99.96
782.317	103.68
782.62	98.27
782.923	97.24
783.225	100.19
783.527	100.52
783.83	99.25
784.132	97.84
784.435	98.91
784.737	96.04
785.039	103
785.341	97.33
785.643	95.07
785.945	93.99
786.248	93.85
786.55	90.91
786.851	90.31
787.153	85.9
787.455	81.54
787.757	79.58
788.059	84.88
788.36	90.76
788.662	95.48
788.964	85.56
789.265	74.8
789.567	68.39
789.868	62.02
790.17	62.79
790.471	57.16
790.772	56.81
791.074	57.65
791.375	67.83
791.676	68.73
791.977	70.69
792.278	66.07
792.579	56.78
792.88	64.88
793.181	71.42
793.482	74.39
793.783	72.1
794.083	62.95
794.384	70.53
794.685	77.75
794.986	78.98
795.286	71.19
795.587	63.43
795.887	73
796.188	66.95
796.488	70.53
796.788	70.32
797.089	69.87
797.389	69.53
797.689	70.3
797.989	76.49
798.289	68.15
798.589	59.91
798.889	52.57
799.189	63.87
799.489	50.09
799.789	57.3
800.089	79
800.389	93.12
800.688	87.91
800.988	114.58
801.288	154.25
801.587	216.45
801.887	170.71
802.186	129.1
802.486	120.13
802.785	192.79
803.085	308.47
803.384	1369.39
803.683	-466.75
803.982	-1764
804.281	-1048.42
804.58	-1718.5
804.879	-2933.03
805.178	-1382.7
805.477	908.11
805.776	484.72
806.075	362.02
806.374	257.18
806.673	198.78
806.971	228.22
807.27	181.37
807.569	135.47
807.867	124.55
808.166	114.62
808.464	102.81
808.763	115.49
809.061	88.99
809.359	96.99
809.658	109.08
809.956	123.15
810.254	123.31
810.552	107.02
810.85	105.28
811.148	101.1
811.446	98.95
811.744	98.95
812.042	106.29
812.34	89.98
812.638	95.21
812.935	82.31
813.233	99.81
813.531	109.83
813.828	101.98
814.126	111.94
814.423	99.3
814.721	128.65
815.018	192.04
815.316	153.24
815.613	159.42
815.91	167.45
816.207	161.52
816.504	249.38
816.802	230.97
817.099	239.96
817.396	158.6
817.693	140.97
817.99	167.12
818.286	151.05
818.583	158.25
818.88	226.99
819.177	196.52
819.473	139.75
819.77	206.64
820.067	139.06
820.363	136.98
820.66	140.99
820.956	138.41
821.252	141.72
821.549	152.18
821.845	145.77
822.141	110.12
822.437	90.71
822.734	70.97
823.03	99.22
823.326	110.57
823.622	93.39
823.918	73.65
824.213	77.88
824.509	68.98
824.805	80.48
825.101	84.32
825.397	82.49
825.692	67.18
825.988	44.01
826.283	25.94
826.579	39.45
826.874	52.34
827.17	29.49
827.465	52.24
827.76	86.45
828.056	77.24
828.351	211.5
828.646	-167.19
828.941	264.14
829.236	281.63
829.531	382.63
829.826	421.51
830.121	-633.33
830.416	-271.53
830.711	-16.68
831.006	-44.99
831.3	-66.49
831.595	-97.36
831.89	-22.61
832.184	-6.76
832.479	-131.62
832.773	-47.4
833.068	-304.8
833.362	-1673.77
833.656	860
833.951	-240.35
834.245	112.73
834.539	832.17
834.833	314.56
835.127	184.93
835.421	171.3
835.715	146.95
836.009	133.67
836.303	130.83
836.597	95.07
836.891	79.68
837.185	47.59
837.478	36.59
837.772	21.26
838.066	49.86
838.359	63.16
838.653	74.86
838.946	60.72
839.24	69.76
839.533	67.62
839.826	66.29
840.119	59.96
840.413	72.6
840.706	65.9
840.999	77.58
841.292	84.92
841.585	83.39
841.878	79.23
842.171	83.45
842.464	83.2
842.757	76.18
843.049	78.53
843.342	68.02
843.635	65.01
843.927	64.98
844.22	83.07
844.513	99.87
844.805	108.92
845.098	113.4
845.39	100.78
845.682	90.91
845.975	81.72
846.267	100.22
846.559	118.84
846.851	123.22
847.143	114.45
847.435	119.84
847.727	98.16
848.019	102.28
848.311	105.76
848.603	88.24
848.895	97.99
849.186	75.89
849.478	61.6
849.77	86.03
850.061	64.55
850.353	71.12
850.645	88.55
850.936	100.34
851.227	92.24
851.519	93.59
851.81	83.47
852.101	84.6
852.393	96.32
852.684	97.37
852.975	128.16
853.266	559.87
853.557	354.23
853.848	227.33
854.139	188.92
854.43	334.22
854.72	-1010.09
855.011	2837.31
855.302	549.16
855.593	-896.38
855.883	76166.67
856.174	409.89
856.464	1192.51
856.755	1959.49
857.045	364.72
857.336	1259.07
857.626	2922.22
857.916	679.72
858.206	-196.36
858.497	-97.11
858.787	-30.43
859.077	-23.92
859.367	-28.09
859.657	-15.15
859.947	-24.9
860.237	-57.21
860.527	-1008.8
860.816	267.61
861.106	793.25
861.396	302.96
861.685	56433.33
861.975	206.85
862.265	-189.51
862.554	-113.75
862.844	120.84
863.133	-276.15
863.422	-54.15
863.712	-79.81
864.001	150.09
864.29	-316
864.579	-2013.73
864.868	1008.77
865.157	-579.26
865.446	409.47
865.735	143.11
866.024	169.74
866.313	123.33
866.602	640
866.891	307.84
867.179	200.41
867.468	1017.46
