Data from T1_Reflection__56__20-50-36-394.txt Node

Date: Wed Jun 02 20:50:36 CEST 2021
User: mabdelazizm
Spectrometer: FLMS18565
Trigger mode: 0
Integration Time (sec): 2.000000E0
Scans to average: 1
Electric dark correction enabled: true
Nonlinearity correction enabled: false
Boxcar width: 12
XAxis mode: Wavelengths
Number of Pixels in Spectrum: 2048
>>>>>Begin Spectral Data<<<<<
179.071	18.04
179.452	5.78
179.833	5.41
180.214	-0
180.595	-11.6
180.977	-53.85
181.358	-28.25
181.739	15
182.12	4.23
182.501	-23.08
182.882	25.63
183.262	136
183.643	-169.92
184.024	6.45
184.405	3.21
184.786	-2.37
185.166	6.04
185.547	-0.64
185.927	-2.41
186.308	5.6
186.689	12.3
187.069	19.23
187.449	18.43
187.83	15.7
188.21	18.96
188.59	19.77
188.971	16.8
189.351	12.57
189.731	11.03
190.111	10.56
190.491	10.58
190.871	11.37
191.251	13.57
191.631	13.08
192.011	12.3
192.391	12.04
192.771	14.97
193.151	14.98
193.531	14.44
193.91	15.21
194.29	15.95
194.67	16.56
195.049	17.21
195.429	15.62
195.808	13.82
196.188	12.6
196.567	10.62
196.946	10.83
197.326	10.69
197.705	10.54
198.084	9.74
198.464	10.74
198.843	12.45
199.222	13.17
199.601	13.16
199.98	13.16
200.359	13.04
200.738	14.22
201.117	15.16
201.496	14.26
201.875	14.89
202.254	13.8
202.632	12.72
203.011	12.35
203.39	11.45
203.768	10.01
204.147	9.52
204.525	8.77
204.904	9.7
205.282	11.16
205.661	10.54
206.039	11.06
206.418	10.07
206.796	10.62
207.174	9.69
207.552	9.91
207.931	9.63
208.309	8.98
208.687	8.95
209.065	8.66
209.443	8.78
209.821	9.05
210.199	7.47
210.577	5.87
210.954	6.53
211.332	5.52
211.71	5.98
212.088	6.75
212.465	5.72
212.843	5.54
213.221	6.2
213.598	6.42
213.976	6.45
214.353	6.14
214.731	5.07
215.108	5.09
215.485	4.92
215.863	5.24
216.24	4.71
216.617	4.42
216.994	4.38
217.371	3.92
217.749	4.19
218.126	4.3
218.503	4.63
218.88	4.77
219.256	4.65
219.633	5.03
220.01	5.48
220.387	5.2
220.764	5.44
221.14	5.27
221.517	4.93
221.894	5.03
222.27	5.4
222.647	5.31
223.023	4.71
223.4	4.97
223.776	4.95
224.153	5.12
224.529	5.01
224.905	5.38
225.282	5.55
225.658	5.41
226.034	5.38
226.41	5.35
226.786	5.27
227.162	5.17
227.538	4.81
227.914	4.54
228.29	4.25
228.666	4.03
229.042	3.91
229.418	3.89
229.793	3.81
230.169	3.97
230.545	3.66
230.92	3.65
231.296	3.52
231.672	3.45
232.047	3.47
232.422	3.72
232.798	3.44
233.173	3.4
233.549	3.26
233.924	3.22
234.299	3.06
234.674	2.99
235.05	3.05
235.425	3.08
235.8	3.14
236.175	3.1
236.55	3.06
236.925	3.12
237.3	3.06
237.675	2.95
238.049	3.02
238.424	2.97
238.799	2.94
239.174	3.04
239.548	3.04
239.923	3.08
240.297	3.02
240.672	3
241.046	2.92
241.421	2.89
241.795	2.78
242.17	2.78
242.544	2.73
242.918	2.75
243.293	2.77
243.667	2.76
244.041	2.73
244.415	2.66
244.789	2.62
245.163	2.47
245.537	2.53
245.911	2.48
246.285	2.46
246.659	2.48
247.033	2.59
247.406	2.53
247.78	2.54
248.154	2.55
248.528	2.52
248.901	2.51
249.275	2.57
249.648	2.54
250.022	2.53
250.395	2.58
250.769	2.57
251.142	2.61
251.515	2.64
251.888	2.65
252.262	2.64
252.635	2.57
253.008	2.57
253.381	2.55
253.754	2.58
254.127	2.62
254.5	2.61
254.873	2.55
255.246	2.52
255.619	2.46
255.992	2.44
256.364	2.34
256.737	2.34
257.11	2.34
257.483	2.29
257.855	2.25
258.228	2.18
258.6	2.17
258.973	2.25
259.345	2.26
259.718	2.17
260.09	2.19
260.462	2.14
260.834	2.13
261.207	2.08
261.579	2.08
261.951	2.14
262.323	2.16
262.695	2.17
263.067	2.15
263.439	2.05
263.811	2.02
264.183	2.02
264.555	2.1
264.927	2.16
265.298	2.17
265.67	2.18
266.042	2.17
266.413	2.09
266.785	2.12
267.156	2.13
267.528	2.08
267.899	2.06
268.271	1.99
268.642	2.02
269.013	2.03
269.385	2.02
269.756	2.01
270.127	1.98
270.498	2.04
270.87	2.02
271.241	1.99
271.612	1.95
271.983	1.94
272.354	1.9
272.724	1.95
273.095	1.99
273.466	1.98
273.837	1.96
274.208	1.95
274.578	1.96
274.949	1.99
275.32	2
275.69	2.03
276.061	2
276.431	1.91
276.802	1.97
277.172	1.93
277.542	1.88
277.913	1.83
278.283	1.84
278.653	1.84
279.023	1.85
279.394	1.87
279.764	1.84
280.134	1.82
280.504	1.81
280.874	1.84
281.244	1.81
281.614	1.78
281.983	1.74
282.353	1.73
282.723	1.78
283.093	1.76
283.462	1.7
283.832	1.66
284.202	1.68
284.571	1.66
284.941	1.66
285.31	1.61
285.68	1.61
286.049	1.63
286.418	1.6
286.788	1.74
287.157	1.73
287.526	1.73
287.895	1.72
288.264	1.73
288.633	1.75
289.002	1.73
289.371	1.75
289.74	1.68
290.109	1.61
290.478	1.61
290.847	1.69
291.216	1.7
291.585	1.69
291.953	1.65
292.322	1.61
292.691	1.63
293.059	1.65
293.428	1.59
293.796	1.57
294.165	1.54
294.533	1.55
294.901	1.66
295.27	1.63
295.638	1.67
296.006	1.57
296.374	1.62
296.743	1.61
297.111	1.61
297.479	1.53
297.847	1.51
298.215	1.54
298.583	1.52
298.95	1.57
299.318	1.55
299.686	1.56
300.054	1.54
300.422	1.52
300.789	1.48
301.157	1.47
301.525	1.51
301.892	1.49
302.26	1.47
302.627	1.44
302.994	1.48
303.362	1.49
303.729	1.5
304.097	1.39
304.464	1.37
304.831	1.38
305.198	1.39
305.565	1.31
305.932	1.33
306.299	1.31
306.666	1.33
307.033	1.31
307.4	1.32
307.767	1.3
308.134	1.3
308.501	1.33
308.867	1.35
309.234	1.33
309.601	1.39
309.967	1.42
310.334	1.38
310.701	1.38
311.067	1.36
311.433	1.37
311.8	1.36
312.166	1.36
312.533	1.38
312.899	1.4
313.265	1.4
313.631	1.43
313.997	1.35
314.363	1.36
314.729	1.34
315.096	1.34
315.461	1.31
315.827	1.32
316.193	1.37
316.559	1.33
316.925	1.35
317.291	1.32
317.656	1.27
318.022	1.22
318.388	1.22
318.753	1.19
319.119	1.22
319.484	1.29
319.85	1.26
320.215	1.27
320.581	1.24
320.946	1.21
321.311	1.18
321.676	1.14
322.042	1.15
322.407	1.16
322.772	1.09
323.137	1.15
323.502	1.12
323.867	1.14
324.232	1.11
324.597	1.13
324.962	1.16
325.327	1.16
325.691	1.16
326.056	1.17
326.421	1.21
326.785	1.23
327.15	1.23
327.514	1.22
327.879	1.27
328.243	1.22
328.608	1.18
328.972	1.16
329.337	1.17
329.701	1.19
330.065	1.27
330.429	1.21
330.794	1.24
331.158	1.26
331.522	1.29
331.886	1.32
332.25	1.3
332.614	1.27
332.978	1.25
333.342	1.24
333.705	1.25
334.069	1.23
334.433	1.22
334.797	1.2
335.16	1.13
335.524	1.07
335.887	1.12
336.251	1.09
336.614	1.11
336.978	1.04
337.341	1.03
337.705	1.08
338.068	1.18
338.431	1.18
338.794	1.14
339.158	1.09
339.521	1.07
339.884	1
340.247	0.92
340.61	0.93
340.973	0.95
341.336	0.95
341.699	0.97
342.062	0.99
342.424	1.01
342.787	0.97
343.15	0.93
343.512	0.9
343.875	0.93
344.238	0.97
344.6	0.98
344.963	0.95
345.325	1
345.688	1.02
346.05	1.03
346.412	1.1
346.775	1
347.137	0.98
347.499	1.03
347.861	1.1
348.223	1.13
348.585	1.2
348.947	1.25
349.309	1.22
349.671	1.22
350.033	1.21
350.395	1.15
350.757	1.15
351.118	1.2
351.48	1.23
351.842	1.13
352.203	1.15
352.565	1.07
352.927	1.14
353.288	1.21
353.65	1.18
354.011	1.12
354.372	1.14
354.734	1.07
355.095	1.04
355.456	0.98
355.817	1.01
356.179	1
356.54	0.93
356.901	0.9
357.262	0.84
357.623	0.81
357.984	0.86
358.345	0.92
358.705	0.88
359.066	0.82
359.427	0.98
359.788	0.96
360.148	0.95
360.509	0.92
360.87	1.06
361.23	0.99
361.591	1.09
361.951	1.01
362.312	0.92
362.672	0.93
363.032	0.93
363.393	0.87
363.753	0.96
364.113	0.92
364.473	0.96
364.833	0.9
365.193	0.87
365.553	0.85
365.913	0.85
366.273	0.87
366.633	0.92
366.993	0.82
367.353	0.73
367.713	0.74
368.072	0.8
368.432	0.66
368.792	0.74
369.151	0.79
369.511	0.81
369.87	0.81
370.23	0.89
370.589	0.88
370.949	0.85
371.308	0.89
371.667	0.89
372.027	0.94
372.386	0.98
372.745	0.94
373.104	0.98
373.463	0.96
373.822	0.95
374.181	0.94
374.54	0.95
374.899	0.86
375.258	0.9
375.617	0.89
375.975	0.94
376.334	1.01
376.693	1.03
377.052	1.01
377.41	1.04
377.769	1.02
378.127	0.92
378.486	0.92
378.844	0.93
379.202	0.94
379.561	0.96
379.919	0.89
380.277	0.91
380.636	0.92
380.994	0.91
381.352	0.89
381.71	0.81
382.068	0.81
382.426	0.78
382.784	0.89
383.142	0.92
383.5	0.91
383.857	0.98
384.215	0.94
384.573	0.87
384.931	0.84
385.288	0.83
385.646	0.8
386.003	0.76
386.361	0.75
386.718	0.73
387.076	0.75
387.433	0.73
387.791	0.66
388.148	0.64
388.505	0.55
388.862	0.62
389.22	0.59
389.577	0.58
389.934	0.61
390.291	0.67
390.648	0.69
391.005	0.68
391.362	0.62
391.718	0.55
392.075	0.53
392.432	0.58
392.789	0.62
393.145	0.59
393.502	0.66
393.859	0.65
394.215	0.66
394.572	0.73
394.928	0.82
395.285	0.73
395.641	0.74
395.997	0.75
396.354	0.76
396.71	0.8
397.066	0.78
397.422	0.84
397.778	0.85
398.134	0.82
398.491	0.85
398.846	0.8
399.202	0.74
399.558	0.78
399.914	0.84
400.27	0.88
400.626	0.84
400.981	0.83
401.337	0.78
401.693	0.72
402.048	0.7
402.404	0.71
402.759	0.77
403.115	0.82
403.47	0.77
403.826	0.79
404.181	0.89
404.536	0.86
404.892	0.87
405.247	0.8
405.602	0.78
405.957	0.73
406.312	0.73
406.667	0.75
407.022	0.76
407.377	0.72
407.732	0.72
408.087	0.82
408.442	0.87
408.796	0.8
409.151	0.86
409.506	0.95
409.86	0.91
410.215	1
410.57	1.01
410.924	1.08
411.279	1
411.633	0.98
411.987	1.01
412.342	1.01
412.696	0.89
413.05	0.99
413.404	0.99
413.758	1.07
414.113	1.05
414.467	1.09
414.821	1.24
415.175	1.26
415.529	1.22
415.882	1.24
416.236	1.26
416.59	1.33
416.944	1.29
417.298	1.39
417.651	1.43
418.005	1.42
418.358	1.41
418.712	1.56
419.065	1.5
419.419	1.53
419.772	1.6
420.126	1.68
420.479	1.74
420.832	1.7
421.185	1.73
421.539	1.86
421.892	1.76
422.245	1.75
422.598	1.77
422.951	1.81
423.304	1.76
423.657	1.61
424.01	1.59
424.363	1.63
424.715	1.69
425.068	1.74
425.421	1.69
425.773	1.69
426.126	1.64
426.479	1.67
426.831	1.64
427.184	1.68
427.536	1.6
427.889	1.68
428.241	1.79
428.593	1.79
428.945	1.78
429.298	1.76
429.65	1.76
430.002	1.78
430.354	1.76
430.706	1.79
431.058	1.85
431.41	1.82
431.762	1.87
432.114	1.88
432.466	2.05
432.817	2.06
433.169	2.11
433.521	2.1
433.872	2.13
434.224	2.15
434.576	2.15
434.927	2.08
435.279	2.04
435.63	2.03
435.981	2.02
436.333	2.09
436.684	2.05
437.035	1.91
437.387	1.87
437.738	1.86
438.089	1.76
438.44	1.73
438.791	1.68
439.142	1.65
439.493	1.66
439.844	1.6
440.195	1.6
440.545	1.7
440.896	1.76
441.247	1.68
441.598	1.71
441.948	1.69
442.299	1.71
442.649	1.66
443	1.64
443.35	1.54
443.701	1.48
444.051	1.46
444.401	1.55
444.752	1.48
445.102	1.38
445.452	1.36
445.802	1.36
446.152	1.44
446.502	1.54
446.852	1.58
447.202	1.52
447.552	1.57
447.902	1.58
448.252	1.49
448.602	2.87
448.952	2.9
449.301	2.8
449.651	2.78
450.001	2.83
450.35	2.82
450.7	2.83
451.049	2.78
451.399	2.83
451.748	2.86
452.097	2.99
452.447	3.03
452.796	3.04
453.145	3.03
453.494	3.09
453.843	3.17
454.193	3.2
454.542	3.29
454.891	3.28
455.239	3.17
455.588	3.21
455.937	3.24
456.286	3.23
456.635	3.22
456.984	3.33
457.332	1.82
457.681	1.75
458.03	1.77
458.378	1.82
458.727	1.82
459.075	1.86
459.423	2
459.772	2.1
460.12	2.13
460.468	2.28
460.817	2.34
461.165	2.43
461.513	2.42
461.861	2.36
462.209	2.39
462.557	2.41
462.905	2.37
463.253	2.31
463.601	2.29
463.949	2.37
464.297	2.31
464.644	2.39
464.992	2.49
465.34	2.58
465.687	2.58
466.035	2.6
466.383	2.68
466.73	2.72
467.078	2.72
467.425	2.69
467.772	2.74
468.12	2.58
468.467	2.51
468.814	2.5
469.161	2.45
469.508	2.35
469.856	2.3
470.203	2.36
470.55	2.41
470.897	2.34
471.243	2.3
471.59	2.21
471.937	2.15
472.284	2.12
472.631	2.16
472.977	2.27
473.324	2.3
473.671	2.24
474.017	2.11
474.364	2.15
474.71	2.06
475.057	2.03
475.403	2
475.749	2.08
476.096	2
476.442	1.93
476.788	1.95
477.134	1.96
477.48	2.02
477.826	1.99
478.172	2.04
478.518	2.03
478.864	1.96
479.21	2.01
479.556	1.98
479.902	2.01
480.248	2.12
480.593	2.06
480.939	2.05
481.285	2.01
481.63	1.95
481.976	1.9
482.321	1.91
482.667	1.98
483.012	1.95
483.357	2.06
483.703	2.08
484.048	2.22
484.393	2.19
484.738	2.3
485.084	2.38
485.429	2.48
485.774	2.59
486.119	2.61
486.464	2.75
486.808	2.86
487.153	3.03
487.498	3.29
487.843	3.45
488.188	3.65
488.532	3.78
488.877	4.01
489.222	4.46
489.566	4.74
489.911	5
490.255	5.34
490.6	5.69
490.944	5.98
491.288	6.35
491.633	6.73
491.977	7.07
492.321	7.54
492.665	7.79
493.009	8.26
493.353	8.73
493.697	9.18
494.041	9.68
494.385	10.23
494.729	10.75
495.073	11.25
495.417	11.77
495.76	12.31
496.104	12.86
496.448	13.47
496.791	14.15
497.135	14.79
497.479	15.46
497.822	16
498.165	16.59
498.509	17.27
498.852	17.95
499.196	18.74
499.539	19.55
499.882	20.19
500.225	20.99
500.568	21.73
500.911	22.34
501.254	23.1
501.597	23.7
501.94	24.36
502.283	25.06
502.626	25.77
502.969	26.43
503.312	27.12
503.654	27.81
503.997	28.65
504.34	29.35
504.682	30.03
505.025	30.64
505.367	31.31
505.71	32.06
506.052	32.76
506.395	33.52
506.737	34.3
507.079	34.95
507.421	35.64
507.764	36.22
508.106	36.83
508.448	37.48
508.79	38
509.132	38.57
509.474	39.17
509.816	39.74
510.158	40.46
510.499	41.09
510.841	41.66
511.183	42.16
511.525	42.61
511.866	43.23
512.208	43.78
512.549	44.18
512.891	44.72
513.232	45.34
513.574	45.92
513.915	46.36
514.256	46.83
514.598	47.23
514.939	47.69
515.28	48.04
515.621	48.46
515.962	48.95
516.303	49.4
516.644	49.72
516.985	50.11
517.326	50.49
517.667	50.83
518.008	51.21
518.349	51.53
518.69	51.81
519.03	52.05
519.371	52.3
519.712	52.63
520.052	52.82
520.393	53.08
520.733	53.29
521.074	53.59
521.414	53.93
521.754	54.1
522.095	54.28
522.435	54.6
522.775	54.78
523.115	55.25
523.455	55.26
523.795	55.52
524.135	55.81
524.475	56.09
524.815	56.28
525.155	56.57
525.495	56.87
525.835	57.17
526.175	57.36
526.514	57.64
526.854	57.88
527.194	58.09
527.533	58.26
527.873	58.47
528.212	58.46
528.552	58.69
528.891	58.85
529.23	58.96
529.57	59.08
529.909	59.06
530.248	59.22
530.587	59.4
530.927	59.6
531.266	59.78
531.605	59.72
531.944	60.04
532.283	60.22
532.621	60.46
532.96	60.52
533.299	60.53
533.638	60.67
533.977	60.68
534.315	60.68
534.654	60.77
534.992	60.81
535.331	60.75
535.67	60.84
536.008	60.96
536.346	61.07
536.685	61.39
537.023	61.6
537.361	61.62
537.7	61.84
538.038	61.92
538.376	62.04
538.714	62.09
539.052	62.09
539.39	62.23
539.728	62.36
540.066	62.43
540.404	62.41
540.741	62.4
541.079	62.19
541.417	62.29
541.755	62.65
542.092	62.75
542.43	62.83
542.767	62.88
543.105	62.96
543.442	62.94
543.78	63.09
544.117	63.16
544.454	63.51
544.792	63.6
545.129	63.55
545.466	63.38
545.803	63.38
546.14	63.48
546.477	63.55
546.814	63.7
547.151	63.73
547.488	63.84
547.825	63.6
548.162	63.57
548.499	63.76
548.835	63.91
549.172	64.02
549.509	64.27
549.845	64.2
550.182	64.1
550.518	64.03
550.855	64.1
551.191	64.17
551.528	64.26
551.864	64.34
552.2	64.42
552.537	64.51
552.873	64.32
553.209	64.33
553.545	64.41
553.881	64.77
554.217	65.06
554.553	64.94
554.889	64.96
555.225	65.14
555.561	65.08
555.896	65.14
556.232	65.39
556.568	65.61
556.903	65.58
557.239	65.61
557.575	65.66
557.91	65.79
558.245	65.85
558.581	65.77
558.916	65.84
559.252	65.96
559.587	66.06
559.922	66.12
560.257	66.23
560.592	66.25
560.928	66.36
561.263	66.51
561.598	66.59
561.933	66.81
562.267	66.91
562.602	66.73
562.937	66.81
563.272	67
563.607	67.02
563.941	67.2
564.276	67.31
564.611	67.33
564.945	67.5
565.28	67.52
565.614	67.65
565.949	67.79
566.283	67.77
566.617	67.82
566.951	67.83
567.286	67.82
567.62	67.93
567.954	67.91
568.288	67.88
568.622	67.91
568.956	67.91
569.29	67.76
569.624	67.66
569.958	67.65
570.292	67.61
570.626	67.68
570.959	67.8
571.293	67.87
571.627	67.83
571.96	67.73
572.294	67.71
572.627	67.78
572.961	67.75
573.294	67.63
573.627	67.72
573.961	67.73
574.294	67.69
574.627	67.71
574.961	67.72
575.294	67.84
575.627	67.84
575.96	67.73
576.293	67.65
576.626	67.65
576.959	67.66
577.292	67.73
577.624	67.79
577.957	67.93
578.29	67.89
578.623	67.84
578.955	67.81
579.288	67.91
579.62	67.95
579.953	67.89
580.285	67.87
580.618	67.99
580.95	67.9
581.282	67.93
581.615	67.95
581.947	67.97
582.279	67.94
582.611	67.88
582.943	67.87
583.275	67.91
583.607	67.92
583.939	67.97
584.271	68.05
584.603	68.28
584.935	68.29
585.267	68.31
585.598	68.29
585.93	68.43
586.262	68.31
586.593	68.31
586.925	68.29
587.256	68.35
587.588	68.2
587.919	68.06
588.25	68.21
588.582	68.19
588.913	68.07
589.244	68.09
589.575	68.16
589.907	68.28
590.238	68.2
590.569	68.31
590.9	68.46
591.231	68.5
591.562	68.42
591.892	68.32
592.223	68.5
592.554	68.52
592.885	68.36
593.215	68.3
593.546	68.23
593.877	68.11
594.207	67.99
594.538	68.15
594.868	68.28
595.198	68.35
595.529	68.13
595.859	68.05
596.189	68.22
596.52	68.25
596.85	68.5
597.18	68.47
597.51	68.54
597.84	68.53
598.17	68.42
598.5	68.34
598.83	68.29
599.16	68.21
599.489	68.2
599.819	68.17
600.149	68.11
600.479	68.17
600.808	68.24
601.138	68.35
601.467	68.44
601.797	68.52
602.126	68.86
602.456	68.95
602.785	68.72
603.114	68.75
603.443	68.6
603.773	68.83
604.102	69.02
604.431	68.99
604.76	68.88
605.089	68.8
605.418	68.9
605.747	68.87
606.076	68.77
606.405	68.67
606.733	68.75
607.062	68.87
607.391	68.95
607.72	68.7
608.048	68.84
608.377	68.9
608.705	68.6
609.034	68.59
609.362	68.52
609.69	68.65
610.019	68.68
610.347	68.42
610.675	68.28
611.004	68.31
611.332	68.33
611.66	68.32
611.988	68.06
612.316	67.83
612.644	67.82
612.972	67.81
613.3	67.72
613.627	67.66
613.955	67.65
614.283	67.75
614.611	67.8
614.938	67.78
615.266	67.61
615.593	67.62
615.921	67.99
616.248	67.93
616.576	68.16
616.903	68.24
617.23	67.95
617.558	67.97
617.885	68.14
618.212	68.09
618.539	67.99
618.866	68.09
619.193	68.32
619.52	68.17
619.847	68.59
620.174	68.81
620.501	69.08
620.828	69.05
621.155	69.03
621.481	68.99
621.808	69.1
622.135	68.98
622.461	69.19
622.788	69.27
623.114	69.18
623.441	69.3
623.767	69.29
624.093	69.29
624.42	69.11
624.746	69.34
625.072	69.45
625.398	69.73
625.725	69.93
626.051	69.53
626.377	69.86
626.703	70.02
627.029	70.09
627.354	69.87
627.68	69.94
628.006	69.87
628.332	69.6
628.658	69.62
628.983	69.55
629.309	69.75
629.634	69.86
629.96	70.09
630.285	70.34
630.611	70.02
630.936	70.01
631.262	70.33
631.587	70.12
631.912	70.41
632.237	70.36
632.562	70.98
632.887	70.53
633.213	70.56
633.538	70.75
633.863	70.3
634.187	70.41
634.512	70.17
634.837	70.61
635.162	70.56
635.487	70.61
635.811	70.95
636.136	70.86
636.461	71.41
636.785	71.26
637.11	71.55
637.434	71.17
637.758	70.95
638.083	70.8
638.407	71.27
638.731	71.3
639.056	72.17
639.38	71.79
639.704	71.99
640.028	71.76
640.352	71.82
640.676	71.82
641	71.83
641.324	71.59
641.648	71.53
641.972	72.13
642.295	71.48
642.619	70.98
642.943	70.66
643.266	70.78
643.59	70.52
643.913	70.24
644.237	70.17
644.56	69.86
644.884	70.37
645.207	70.5
645.53	70.87
645.854	71.33
646.177	70.7
646.5	70.67
646.823	70.48
647.146	69.77
647.469	69.7
647.792	69.57
648.115	69.27
648.438	69.69
648.761	70.28
649.084	69.98
649.406	70.17
649.729	69.31
650.052	69.02
650.374	69.29
650.697	69.34
651.019	69.27
651.342	69.16
651.664	69.37
651.987	69.2
652.309	69.17
652.631	69.29
652.953	69.18
653.276	68.97
653.598	69.03
653.92	69
654.242	69.15
654.564	68.99
654.886	69.33
655.208	69.44
655.53	69.49
655.851	69.44
656.173	69.79
656.495	69.63
656.816	69.09
657.138	68.98
657.46	68.52
657.781	69.65
658.103	69.92
658.424	70.14
658.746	70.3
659.067	70.63
659.388	70.96
659.709	71.02
660.031	71.92
660.352	72.15
660.673	71.99
660.994	71.94
661.315	72.61
661.636	72.17
661.957	71.96
662.278	72.72
662.599	72.82
662.919	71.32
663.24	71.17
663.561	71.09
663.881	71.51
664.202	70.8
664.523	70.76
664.843	71.2
665.164	71.79
665.484	71.04
665.804	71.33
666.125	71.39
666.445	71.47
666.765	72
667.085	71.36
667.405	71.29
667.726	71.53
668.046	70.58
668.366	70.04
668.686	70.3
669.005	70.1
669.325	69.61
669.645	69.63
669.965	69.52
670.285	68.28
670.604	67.73
670.924	68.3
671.243	68.52
671.563	68.69
671.882	68.94
672.202	68.37
672.521	69.08
672.841	69.51
673.16	69.54
673.479	70.39
673.798	69.6
674.117	69.84
674.437	69.91
674.756	69.25
675.075	70.02
675.394	70.1
675.713	69.1
676.031	69.79
676.35	70.39
676.669	70.14
676.988	70.28
677.306	70.01
677.625	70.65
677.944	71.37
678.262	71.93
678.581	72.59
678.899	73
679.218	72.77
679.536	72.9
679.854	71.43
680.172	72.21
680.491	71.86
680.809	70.69
681.127	69.46
681.445	69.33
681.763	69.6
682.081	69.66
682.399	69.25
682.717	69.36
683.035	69.29
683.352	69.29
683.67	70.17
683.988	71
684.306	71.67
684.623	71.1
684.941	71.05
685.258	70.95
685.576	70.27
685.893	69.41
686.211	69.31
686.528	68.94
686.845	68.54
687.162	68.28
687.48	67.72
687.797	68.35
688.114	68.52
688.431	68.3
688.748	69.6
689.065	71.1
689.382	70.53
689.699	70.54
690.015	70.55
690.332	70.91
690.649	71.15
690.966	70.08
691.282	70.28
691.599	69.02
691.915	67.91
692.232	67.79
692.548	68.55
692.865	68.49
693.181	69.39
693.497	69.95
693.813	70.12
694.13	70.41
694.446	70.66
694.762	70.8
695.078	71.08
695.394	72.03
695.71	72.37
696.026	70.9
696.342	70.97
696.658	70.83
696.973	70.2
697.289	71
697.605	71.97
697.92	71.17
698.236	71.45
698.551	71.18
698.867	72.51
699.182	72.45
699.498	73.12
699.813	74.14
700.128	74.45
700.444	73.88
700.759	75.38
701.074	74.23
701.389	73.87
701.704	73.67
702.019	73.12
702.334	73.92
702.649	74
702.964	73.6
703.279	72.64
703.594	72.19
703.908	72.45
704.223	72.33
704.538	71.71
704.852	71.68
705.167	71.38
705.481	71.01
705.796	72.69
706.11	71.49
706.425	70.7
706.739	69.83
707.053	70.36
707.368	70.82
707.682	70.02
707.996	70.01
708.31	70.11
708.624	68.87
708.938	69.88
709.252	69.77
709.566	69.72
709.88	70.71
710.193	70.45
710.507	69.77
710.821	70.13
711.135	69.32
711.448	69.72
711.762	70.62
712.075	70.19
712.389	69.73
712.702	69.6
713.015	69.47
713.329	68.69
713.642	68.22
713.955	69.85
714.269	70.98
714.582	71.26
714.895	70.5
715.208	70.21
715.521	69.9
715.834	68.34
716.147	67.85
716.459	67.94
716.772	67.47
717.085	68.34
717.398	68.01
717.71	67.49
718.023	66.49
718.336	67.5
718.648	68.29
718.961	70.92
719.273	72.21
719.585	72.77
719.898	72.49
720.21	72.96
720.522	74.43
720.834	73.34
721.147	73.4
721.459	72.3
721.771	70.91
722.083	71.32
722.395	70.55
722.707	71.76
723.019	72.01
723.33	71.88
723.642	73.37
723.954	72.91
724.265	72.84
724.577	72.78
724.889	71.4
725.2	72.55
725.512	72.11
725.823	73.7
726.135	73.1
726.446	72.37
726.757	70.47
727.068	69.64
727.38	68.99
727.691	70.14
728.002	71.13
728.313	70.61
728.624	71.6
728.935	72.17
729.246	72.47
729.557	73.02
729.867	73.04
730.178	74.3
730.489	74.75
730.8	74.54
731.11	74.32
731.421	72.6
731.731	72.85
732.042	72.93
732.352	72.89
732.663	73.58
732.973	73.38
733.283	73.69
733.594	71.93
733.904	71.84
734.214	71.44
734.524	72.78
734.834	73.25
735.144	74.26
735.454	74.56
735.764	73.58
736.074	73.19
736.384	72.77
736.694	72.31
737.003	72.38
737.313	72.47
737.623	71.36
737.932	70.33
738.242	67.85
738.551	68.04
738.861	68.81
739.17	69.42
739.479	70.76
739.789	70.38
740.098	70.74
740.407	71.1
740.716	70.75
741.025	70.3
741.334	71.14
741.643	70.71
741.952	71.17
742.261	70.81
742.57	71.41
742.879	70.52
743.188	69.15
743.497	69.36
743.805	70.59
744.114	71.19
744.422	70.65
744.731	70.96
745.04	70.92
745.348	71.16
745.656	72.17
745.965	73.78
746.273	73.87
746.581	75.07
746.889	76.33
747.198	75.07
747.506	75.75
747.814	73.82
748.122	72.2
748.43	73.14
748.738	74.19
749.046	76.41
749.353	78.22
749.661	78.69
749.969	78.52
750.277	75.53
750.584	75.61
750.892	77.78
751.199	78.36
751.507	76.65
751.814	76.91
752.122	76.51
752.429	77.12
752.736	76.89
753.044	78.64
753.351	78.34
753.658	76.82
753.965	76.92
754.272	75.91
754.579	75.83
754.886	75.76
755.193	74.25
755.5	76.6
755.807	74.91
756.114	73.23
756.42	72.5
756.727	71.15
757.034	69.49
757.34	70.67
757.647	70.72
757.953	70.99
758.26	71.12
758.566	69.55
758.872	69.69
759.179	71.18
759.485	69.71
759.791	68.18
760.097	67.5
760.403	68.03
760.709	67.07
761.015	66.45
761.321	68.82
761.627	69.93
761.933	70.68
762.239	70.89
762.545	69.56
762.851	70.47
763.156	69.77
763.462	71.94
763.767	74.43
764.073	74.04
764.378	73.01
764.684	75.71
764.989	73.92
765.295	71.83
765.6	70.14
765.905	70.99
766.21	70.61
766.515	69.74
766.821	68.17
767.126	71.79
767.431	75.41
767.736	74.24
768.041	71.28
768.345	68.93
768.65	68.88
768.955	67.53
769.26	64.85
769.564	66.05
769.869	65.28
770.174	65.58
770.478	66.99
770.783	66.53
771.087	69.22
771.391	69.69
771.696	72.04
772	74.79
772.304	75.66
772.608	77.68
772.913	81.72
773.217	84.71
773.521	79.48
773.825	80.52
774.129	79.88
774.433	79.4
774.736	75.17
775.04	78.71
775.344	81.28
775.648	83.88
775.951	84.62
776.255	89.45
776.559	87.23
776.862	85.31
777.166	84.67
777.469	81.46
777.772	84.85
778.076	81.62
778.379	77.62
778.682	76.49
778.985	74.09
779.289	71.42
779.592	69.37
779.895	66.31
780.198	69.46
780.501	66.74
780.804	70
781.106	71.27
781.409	68.29
781.712	74.72
782.015	76.82
782.317	75.59
782.62	74.38
782.923	77.82
783.225	78.32
783.527	81.8
783.83	76.67
784.132	79.62
784.435	83.8
784.737	79.7
785.039	81.31
785.341	82.11
785.643	81.36
785.945	83.18
786.248	77.26
786.55	74.99
786.851	75.13
787.153	73.02
787.455	68.61
787.757	63.22
788.059	64.76
788.36	62.29
788.662	65.81
788.964	70.85
789.265	64.43
789.567	64.34
789.868	63.7
790.17	59.73
790.471	57.79
790.772	54.75
791.074	53.66
791.375	56.19
791.676	55.5
791.977	55.02
792.278	56.27
792.579	57.11
792.88	57.27
793.181	58.4
793.482	61.77
793.783	63.54
794.083	67.37
794.384	68.61
794.685	67.86
794.986	66.92
795.286	68.02
795.587	66.93
795.887	72.08
796.188	64.85
796.488	64.4
796.788	66.19
797.089	65.23
797.389	65.85
797.689	67.92
797.989	65.42
798.289	66.94
798.589	69.07
798.889	68.82
799.189	64.78
799.489	70.38
799.789	69.28
800.089	66.43
800.389	65.66
800.688	70.21
800.988	70.39
801.288	75.16
801.587	77.88
801.887	75.58
802.186	79.06
802.486	91.64
802.785	101.35
803.085	103.25
803.384	103.83
803.683	112.99
803.982	105.86
804.281	100.24
804.58	99.31
804.879	114.67
805.178	118.98
805.477	118.82
805.776	121.5
806.075	107.06
806.374	99.52
806.673	108.93
806.971	108.36
807.27	99.05
807.569	103.67
807.867	103.22
808.166	90.05
808.464	77.73
808.763	65.37
809.061	54.98
809.359	59.09
809.658	67.24
809.956	71.24
810.254	61.52
810.552	59.45
810.85	60.67
811.148	57.76
811.446	63.16
811.744	69.05
812.042	68.95
812.34	60.03
812.638	69.83
812.935	72.83
813.233	58.56
813.531	70.53
813.828	82.91
814.126	83.76
814.423	92.62
814.721	103.05
815.018	83.32
815.316	93.69
815.613	102.2
815.91	134.47
816.207	145.83
816.504	148.61
816.802	142.01
817.099	170.59
817.396	174.15
817.693	228.09
817.99	183.98
818.286	183.24
818.583	178.47
818.88	157.65
819.177	158.63
819.473	136.92
819.77	120.21
820.067	118.98
820.363	113.3
820.66	129.89
820.956	134.19
821.252	129.85
821.549	122.02
821.845	104.16
822.141	88.85
822.437	105.39
822.734	97.13
823.03	89.83
823.326	93.22
823.622	91.86
823.918	84.7
824.213	90.49
824.509	84.86
824.805	76.8
825.101	66.51
825.397	66.86
825.692	61.6
825.988	55.2
826.283	52.54
826.579	44.6
826.874	43.44
827.17	46.01
827.465	36.96
827.76	30.27
828.056	28.04
828.351	20.91
828.646	24.77
828.941	23.19
829.236	13.92
829.531	22.16
829.826	23.84
830.121	21.31
830.416	25.31
830.711	18.28
831.006	7.88
831.3	12.46
831.595	3.97
831.89	-5.96
832.184	24.65
832.479	14.2
832.773	34.34
833.068	53.7
833.362	70.09
833.656	64.77
833.951	68.61
834.245	72.07
834.539	80.11
834.833	84.83
835.127	91.13
835.421	90.18
835.715	92.4
836.009	82.05
836.303	86.73
836.597	88.09
836.891	90.39
837.185	76.89
837.478	71.67
837.772	67.62
838.066	60.74
838.359	56.96
838.653	52.19
838.946	47.34
839.24	53.46
839.533	38.8
839.826	45.72
840.119	42.58
840.413	46.34
840.706	37.97
840.999	41.67
841.292	41.04
841.585	29.54
841.878	15.68
842.171	17.31
842.464	11.02
842.757	27.49
843.049	32.49
843.342	26.19
843.635	17.48
843.927	22.34
844.22	23.96
844.513	23.72
844.805	21.16
845.098	24.95
845.39	28.46
845.682	32.91
845.975	31.48
846.267	41.84
846.559	41.4
846.851	43.23
847.143	45.87
847.435	44.9
847.727	43.75
848.019	36.23
848.311	42.39
848.603	44.44
848.895	53
849.186	54.37
849.478	49.52
849.77	67.94
850.061	43.21
850.353	31.54
850.645	40.08
850.936	49.23
851.227	54
851.519	35.44
851.81	44.55
852.101	47.93
852.393	47.85
852.684	45.31
852.975	55.37
853.266	60.77
853.557	54.01
853.848	58.28
854.139	70.54
854.43	67.71
854.72	72.06
855.011	61.61
855.302	85.55
855.593	75.25
855.883	88.52
856.174	77.91
856.464	73.47
856.755	62.04
857.045	63.34
857.336	65.06
857.626	71.05
857.916	71.11
858.206	64.66
858.497	55.06
858.787	65.16
859.077	63.86
859.367	67.25
859.657	65.43
859.947	75.17
860.237	73.54
860.527	68.29
860.816	67.13
861.106	58.15
861.396	53.91
861.685	52.4
861.975	48.06
862.265	55
862.554	48.81
862.844	38.57
863.133	28.77
863.422	29.19
863.712	29.11
864.001	33.72
864.29	24.43
864.579	23.32
864.868	26.85
865.157	29.26
865.446	39.2
865.735	47.36
866.024	43.34
866.313	51.45
866.602	42.31
866.891	43.58
867.179	29.87
867.468	28.07
