Data from T1_Reflection__13__17-07-54-706.txt Node

Date: Wed Jun 02 17:07:54 CEST 2021
User: mabdelazizm
Spectrometer: FLMS18565
Trigger mode: 0
Integration Time (sec): 2.000000E0
Scans to average: 1
Electric dark correction enabled: true
Nonlinearity correction enabled: false
Boxcar width: 12
XAxis mode: Wavelengths
Number of Pixels in Spectrum: 2048
>>>>>Begin Spectral Data<<<<<
179.071	59.92
179.452	80.99
179.833	-600
180.214	114.29
180.595	-1278.79
180.977	114.83
181.358	258.54
181.739	173.33
182.12	155.64
182.501	152.16
182.882	111.11
183.262	117.79
183.643	701.9
184.024	-47.9
184.405	11.49
184.786	27.28
185.166	19.35
185.547	21.7
185.927	12.95
186.308	17.7
186.689	14.37
187.069	20.3
187.449	21.75
187.83	29.39
188.21	22.12
188.59	22.94
188.971	22.81
189.351	18.26
189.731	20.91
190.111	21.48
190.491	19.77
190.871	17.84
191.251	15.9
191.631	14.71
192.011	14.62
192.391	15.74
192.771	17.11
193.151	19.36
193.531	18.35
193.91	16.27
194.29	15.4
194.67	14.28
195.049	15.36
195.429	15.02
195.808	13.3
196.188	14.79
196.567	13.7
196.946	13.39
197.326	12
197.705	10.92
198.084	10.69
198.464	9.46
198.843	10.62
199.222	11.58
199.601	11.03
199.98	11.04
200.359	11.1
200.738	12.26
201.117	12.71
201.496	13.07
201.875	13.35
202.254	12.33
202.632	12.06
203.011	10.55
203.39	10.23
203.768	10.26
204.147	10.67
204.525	10.52
204.904	10.34
205.282	10.81
205.661	10.33
206.039	10.44
206.418	9.54
206.796	9.31
207.174	10.78
207.552	10.65
207.931	10.71
208.309	10.49
208.687	9.93
209.065	9.95
209.443	10.26
209.821	10.77
210.199	10.31
210.577	10.82
210.954	10.06
211.332	9.05
211.71	9.44
212.088	9.64
212.465	9.55
212.843	9.18
213.221	9.51
213.598	9.49
213.976	9.03
214.353	9.09
214.731	8.41
215.108	8.27
215.485	8.03
215.863	8.36
216.24	8.4
216.617	8.41
216.994	8.26
217.371	8.47
217.749	7.95
218.126	7.76
218.503	7.72
218.88	7.37
219.256	7.15
219.633	7.07
220.01	7.18
220.387	7.45
220.764	8.28
221.14	7.79
221.517	7.2
221.894	7.48
222.27	7.8
222.647	7.08
223.023	6.71
223.4	6.16
223.776	6.28
224.153	6.41
224.529	6.33
224.905	6.19
225.282	6.06
225.658	5.88
226.034	5.37
226.41	5.35
226.786	5.13
227.162	5.03
227.538	5.06
227.914	5.13
228.29	5.16
228.666	4.94
229.042	4.79
229.418	4.27
229.793	4.35
230.169	3.96
230.545	3.66
230.92	3.61
231.296	3.52
231.672	3.39
232.047	3.32
232.422	3.21
232.798	3.27
233.173	3.03
233.549	3.08
233.924	2.93
234.299	2.99
234.674	2.91
235.05	2.68
235.425	2.69
235.8	2.68
236.175	2.67
236.55	2.74
236.925	2.5
237.3	2.4
237.675	2.33
238.049	2.51
238.424	2.58
238.799	2.54
239.174	2.37
239.548	2.43
239.923	2.4
240.297	2.4
240.672	2.43
241.046	2.38
241.421	2.33
241.795	2.29
242.17	2.3
242.544	2.34
242.918	2.16
243.293	2.1
243.667	2.04
244.041	2.03
244.415	2.07
244.789	2.21
245.163	2.24
245.537	2.23
245.911	2.21
246.285	2.29
246.659	2.29
247.033	2.39
247.406	2.18
247.78	2.07
248.154	2.13
248.528	2.14
248.901	2.12
249.275	2.24
249.648	2.28
250.022	2.24
250.395	2.33
250.769	2.35
251.142	2.39
251.515	2.4
251.888	2.39
252.262	2.44
252.635	2.5
253.008	2.49
253.381	2.47
253.754	2.52
254.127	2.38
254.5	2.31
254.873	2.32
255.246	2.34
255.619	2.29
255.992	2.24
256.364	2.14
256.737	2.27
257.11	2.32
257.483	2.32
257.855	2.26
258.228	2.32
258.6	2.24
258.973	2.25
259.345	2.21
259.718	2.14
260.09	2.12
260.462	2.13
260.834	2.13
261.207	2.08
261.579	2.06
261.951	2
262.323	2.04
262.695	2.06
263.067	1.92
263.439	1.89
263.811	1.92
264.183	1.88
264.555	1.87
264.927	1.89
265.298	1.87
265.67	1.88
266.042	1.74
266.413	1.67
266.785	1.68
267.156	1.72
267.528	1.6
267.899	1.58
268.271	1.5
268.642	1.51
269.013	1.51
269.385	1.54
269.756	1.45
270.127	1.39
270.498	1.49
270.87	1.52
271.241	1.58
271.612	1.55
271.983	1.6
272.354	1.71
272.724	1.82
273.095	1.81
273.466	1.85
273.837	1.82
274.208	1.87
274.578	1.83
274.949	1.81
275.32	1.82
275.69	1.86
276.061	1.88
276.431	1.88
276.802	1.9
277.172	1.94
277.542	1.85
277.913	1.87
278.283	1.86
278.653	1.85
279.023	1.94
279.394	1.98
279.764	1.93
280.134	1.88
280.504	1.88
280.874	1.76
281.244	1.64
281.614	1.54
281.983	1.47
282.353	1.45
282.723	1.41
283.093	1.38
283.462	1.35
283.832	1.4
284.202	1.39
284.571	1.47
284.941	1.43
285.31	1.38
285.68	1.32
286.049	1.32
286.418	1.31
286.788	1.45
287.157	1.42
287.526	1.42
287.895	1.43
288.264	1.4
288.633	1.38
289.002	1.32
289.371	1.38
289.74	1.29
290.109	1.36
290.478	1.4
290.847	1.43
291.216	1.37
291.585	1.28
291.953	1.23
292.322	1.22
292.691	1.19
293.059	1.17
293.428	1.14
293.796	1.06
294.165	1.07
294.533	1.11
294.901	1.12
295.27	1.13
295.638	1.18
296.006	1.09
296.374	1.09
296.743	1.13
297.111	1.11
297.479	1.13
297.847	1.15
298.215	1.16
298.583	1.06
298.95	1.03
299.318	1.01
299.686	0.93
300.054	0.92
300.422	0.95
300.789	0.99
301.157	1.02
301.525	1.04
301.892	1
302.26	0.99
302.627	0.99
302.994	1.03
303.362	1.05
303.729	1.05
304.097	1.1
304.464	1.11
304.831	0.99
305.198	0.96
305.565	0.93
305.932	0.85
306.299	0.88
306.666	0.87
307.033	0.81
307.4	0.81
307.767	0.84
308.134	0.95
308.501	0.99
308.867	1.04
309.234	1.01
309.601	1.07
309.967	1.01
310.334	1.04
310.701	1.07
311.067	1.11
311.433	1.12
311.8	1.12
312.166	1.11
312.533	1.14
312.899	1.05
313.265	1.07
313.631	1.09
313.997	1.1
314.363	1.17
314.729	1.15
315.096	1.16
315.461	1.17
315.827	1.08
316.193	1.17
316.559	1.14
316.925	1.19
317.291	1.15
317.656	1.15
318.022	1.18
318.388	1.29
318.753	1.28
319.119	1.34
319.484	1.36
319.85	1.35
320.215	1.34
320.581	1.38
320.946	1.37
321.311	1.41
321.676	1.37
322.042	1.48
322.407	1.42
322.772	1.41
323.137	1.44
323.502	1.39
323.867	1.35
324.232	1.36
324.597	1.29
324.962	1.36
325.327	1.34
325.691	1.36
326.056	1.3
326.421	1.27
326.785	1.26
327.15	1.31
327.514	1.32
327.879	1.3
328.243	1.23
328.608	1.14
328.972	1.07
329.337	1.06
329.701	0.97
330.065	1.01
330.429	1.01
330.794	1.06
331.158	1.02
331.522	1.08
331.886	1.1
332.25	1.08
332.614	1.06
332.978	1.17
333.342	1.14
333.705	1.15
334.069	1.16
334.433	1.13
334.797	1.12
335.16	1.17
335.524	1.19
335.887	1.23
336.251	1.07
336.614	0.98
336.978	0.96
337.341	1.01
337.705	1.1
338.068	1.21
338.431	1.2
338.794	1.18
339.158	1.11
339.521	1.06
339.884	0.97
340.247	1.02
340.61	0.98
340.973	0.94
341.336	0.97
341.699	0.94
342.062	0.84
342.424	0.86
342.787	0.85
343.15	0.83
343.512	0.71
343.875	0.77
344.238	0.76
344.6	0.76
344.963	0.69
345.325	0.74
345.688	0.7
346.05	0.71
346.412	0.68
346.775	0.64
347.137	0.54
347.499	0.59
347.861	0.63
348.223	0.71
348.585	0.78
348.947	0.76
349.309	0.65
349.671	0.68
350.033	0.72
350.395	0.67
350.757	0.7
351.118	0.74
351.48	0.71
351.842	0.77
352.203	0.79
352.565	0.94
352.927	0.86
353.288	0.9
353.65	0.97
354.011	1
354.372	1.03
354.734	1.08
355.095	1.06
355.456	1.13
355.817	1.15
356.179	1.2
356.54	1.18
356.901	1.22
357.262	1.23
357.623	1.17
357.984	1.31
358.345	1.32
358.705	1.28
359.066	1.18
359.427	1.2
359.788	1.21
360.148	1.25
360.509	1.34
360.87	1.37
361.23	1.37
361.591	1.42
361.951	1.5
362.312	1.51
362.672	1.4
363.032	1.27
363.393	1.27
363.753	1.38
364.113	1.42
364.473	1.44
364.833	1.43
365.193	1.36
365.553	1.38
365.913	1.36
366.273	1.4
366.633	1.43
366.993	1.22
367.353	1.25
367.713	1.22
368.072	1.27
368.432	1.34
368.792	1.35
369.151	1.28
369.511	1.23
369.87	1.18
370.23	1.19
370.589	1.11
370.949	1.04
371.308	1.04
371.667	1.08
372.027	1.19
372.386	1.19
372.745	1.14
373.104	1.08
373.463	1.05
373.822	0.95
374.181	1.02
374.54	0.99
374.899	0.99
375.258	0.9
375.617	0.9
375.975	0.95
376.334	0.88
376.693	0.86
377.052	0.95
377.41	0.89
377.769	0.93
378.127	0.95
378.486	0.95
378.844	0.92
379.202	0.91
379.561	0.87
379.919	0.87
380.277	0.76
380.636	0.76
380.994	0.75
381.352	0.75
381.71	0.79
382.068	0.82
382.426	0.82
382.784	1.05
383.142	0.97
383.5	1.03
383.857	1.04
384.215	1.06
384.573	1.03
384.931	1.07
385.288	1.02
385.646	0.98
386.003	0.87
386.361	0.95
386.718	0.99
387.076	0.98
387.433	0.97
387.791	0.92
388.148	0.89
388.505	0.89
388.862	0.9
389.22	0.98
389.577	0.99
389.934	1.07
390.291	1.22
390.648	1.2
391.005	1.24
391.362	1.23
391.718	1.1
392.075	1.11
392.432	1.05
392.789	1.01
393.145	1.07
393.502	1.02
393.859	1.09
394.215	1.21
394.572	1.32
394.928	1.27
395.285	1.2
395.641	1.22
395.997	1.25
396.354	1.34
396.71	1.45
397.066	1.5
397.422	1.6
397.778	1.62
398.134	1.58
398.491	1.64
398.846	1.63
399.202	1.48
399.558	1.48
399.914	1.49
400.27	1.55
400.626	1.54
400.981	1.56
401.337	1.57
401.693	1.68
402.048	1.71
402.404	1.78
402.759	1.72
403.115	1.78
403.47	1.74
403.826	1.84
404.181	1.88
404.536	1.84
404.892	1.91
405.247	1.88
405.602	1.87
405.957	1.87
406.312	1.85
406.667	1.82
407.022	1.87
407.377	1.81
407.732	1.77
408.087	1.8
408.442	1.8
408.796	1.65
409.151	1.64
409.506	1.61
409.86	1.7
410.215	1.65
410.57	1.63
410.924	1.56
411.279	1.53
411.633	1.65
411.987	1.69
412.342	1.73
412.696	1.73
413.05	1.75
413.404	1.73
413.758	1.82
414.113	1.87
414.467	1.89
414.821	1.85
415.175	1.87
415.529	1.97
415.882	1.83
416.236	1.81
416.59	1.84
416.944	1.78
417.298	1.83
417.651	1.91
418.005	1.88
418.358	2.01
418.712	2.06
419.065	2.12
419.419	2.14
419.772	2.22
420.126	2.29
420.479	2.24
420.832	2.25
421.185	2.31
421.539	2.29
421.892	2.2
422.245	2.23
422.598	2.14
422.951	2.12
423.304	2.17
423.657	2.3
424.01	2.22
424.363	2.33
424.715	2.46
425.068	2.58
425.421	2.61
425.773	2.67
426.126	2.72
426.479	2.8
426.831	2.94
427.184	3.02
427.536	2.98
427.889	3
428.241	3.01
428.593	3.01
428.945	3.03
429.298	3
429.65	2.97
430.002	3.02
430.354	3.08
430.706	3.17
431.058	3.29
431.41	3.44
431.762	3.5
432.114	3.36
432.466	3.25
432.817	3.32
433.169	3.2
433.521	3.32
433.872	3.35
434.224	3.33
434.576	3.44
434.927	3.43
435.279	3.39
435.63	3.32
435.981	3.13
436.333	3.11
436.684	3.21
437.035	3.15
437.387	3.17
437.738	3.23
438.089	3.34
438.44	3.35
438.791	3.3
439.142	3.47
439.493	3.46
439.844	3.38
440.195	3.17
440.545	3.15
440.896	3.25
441.247	3.41
441.598	3.42
441.948	3.35
442.299	3.32
442.649	3.22
443	3.28
443.35	3.21
443.701	3.19
444.051	3.27
444.401	3.35
444.752	3.35
445.102	3.39
445.452	3.35
445.802	3.39
446.152	3.41
446.502	3.39
446.852	3.44
447.202	3.41
447.552	3.48
447.902	3.31
448.252	3.33
448.602	3.46
448.952	3.57
449.301	3.63
449.651	3.63
450.001	3.6
450.35	3.73
450.7	3.72
451.049	3.72
451.399	3.82
451.748	3.84
452.097	3.92
452.447	4.05
452.796	3.99
453.145	3.97
453.494	4.09
453.843	4.02
454.193	4.15
454.542	4.25
454.891	4.29
455.239	4.33
455.588	4.22
455.937	4.29
456.286	4.33
456.635	4.32
456.984	4.38
457.332	4.31
457.681	4.29
458.03	4.29
458.378	4.36
458.727	4.5
459.075	4.41
459.423	4.64
459.772	4.66
460.12	4.78
460.468	4.83
460.817	4.88
461.165	4.77
461.513	4.69
461.861	4.79
462.209	4.98
462.557	5.08
462.905	4.97
463.253	4.98
463.601	4.96
463.949	4.98
464.297	5.01
464.644	5.02
464.992	4.98
465.34	5.06
465.687	5.04
466.035	5.04
466.383	5.09
466.73	5.1
467.078	4.98
467.425	4.81
467.772	4.84
468.12	4.76
468.467	4.71
468.814	4.65
469.161	4.56
469.508	4.42
469.856	4.31
470.203	4.36
470.55	4.15
470.897	3.99
471.243	3.93
471.59	3.88
471.937	3.81
472.284	3.81
472.631	3.7
472.977	3.69
473.324	3.75
473.671	3.72
474.017	3.69
474.364	3.73
474.71	3.76
475.057	3.77
475.403	3.7
475.749	3.87
476.096	3.87
476.442	3.95
476.788	3.95
477.134	3.95
477.48	3.88
477.826	3.84
478.172	3.92
478.518	4
478.864	4.05
479.21	4.24
479.556	4.15
479.902	4.18
480.248	4.27
480.593	4.28
480.939	4.27
481.285	4.3
481.63	4.31
481.976	4.31
482.321	4.34
482.667	4.47
483.012	4.5
483.357	4.49
483.703	4.48
484.048	4.59
484.393	4.67
484.738	4.81
485.084	4.82
485.429	5
485.774	5.22
486.119	5.37
486.464	5.64
486.808	5.87
487.153	6.08
487.498	6.33
487.843	6.41
488.188	6.78
488.532	6.99
488.877	7.21
489.222	7.53
489.566	7.92
489.911	8.31
490.255	8.68
490.6	9.04
490.944	9.52
491.288	9.84
491.633	10.22
491.977	10.69
492.321	11.29
492.665	11.75
493.009	12.21
493.353	12.61
493.697	13.15
494.041	13.68
494.385	14.25
494.729	14.95
495.073	15.47
495.417	15.99
495.76	16.56
496.104	17.18
496.448	17.91
496.791	18.59
497.135	19.31
497.479	19.98
497.822	20.66
498.165	21.42
498.509	22.16
498.852	22.94
499.196	23.72
499.539	24.34
499.882	25.11
500.225	25.91
500.568	26.58
500.911	27.27
501.254	27.91
501.597	28.6
501.94	29.34
502.283	30.03
502.626	30.69
502.969	31.33
503.312	31.88
503.654	32.61
503.997	33.28
504.34	33.96
504.682	34.64
505.025	35.36
505.367	35.93
505.71	36.51
506.052	37.23
506.395	37.85
506.737	38.41
507.079	39.04
507.421	39.68
507.764	40.26
508.106	40.99
508.448	41.52
508.79	42.07
509.132	42.64
509.474	43.2
509.816	43.78
510.158	44.3
510.499	44.87
510.841	45.34
511.183	45.78
511.525	46.22
511.866	46.73
512.208	47.25
512.549	47.71
512.891	48.16
513.232	48.53
513.574	48.8
513.915	49.21
514.256	49.64
514.598	50.01
514.939	50.42
515.28	50.76
515.621	51.12
515.962	51.39
516.303	51.68
516.644	51.88
516.985	52.28
517.326	52.58
517.667	52.75
518.008	52.83
518.349	53.17
518.69	53.47
519.03	53.54
519.371	53.75
519.712	54.04
520.052	54.2
520.393	54.36
520.733	54.53
521.074	54.69
521.414	55.08
521.754	55.28
522.095	55.5
522.435	55.75
522.775	55.94
523.115	56.26
523.455	56.51
523.795	56.62
524.135	56.67
524.475	56.93
524.815	57.08
525.155	57.15
525.495	57.15
525.835	57.2
526.175	57.42
526.514	57.61
526.854	57.7
527.194	57.77
527.533	58.08
527.873	58.31
528.212	58.61
528.552	58.82
528.891	59.01
529.23	59.05
529.57	59.18
529.909	59.13
530.248	59.3
530.587	59.42
530.927	59.53
531.266	59.68
531.605	59.47
531.944	59.55
532.283	59.69
532.621	59.82
532.96	59.85
533.299	59.93
533.638	60.28
533.977	60.64
534.315	60.7
534.654	60.71
534.992	60.81
535.331	60.75
535.67	60.76
536.008	60.86
536.346	60.86
536.685	60.69
537.023	60.54
537.361	60.56
537.7	60.65
538.038	60.72
538.376	60.71
538.714	60.78
539.052	60.9
539.39	60.87
539.728	60.96
540.066	61.23
540.404	61.28
540.741	61.29
541.079	61.43
541.417	61.43
541.755	61.48
542.092	61.5
542.43	61.15
542.767	61.16
543.105	61.37
543.442	61.37
543.78	61.54
544.117	61.56
544.454	61.43
544.792	61.52
545.129	61.62
545.466	62.07
545.803	62.29
546.14	62.28
546.477	62.43
546.814	62.59
547.151	62.49
547.488	62.49
547.825	62.52
548.162	62.29
548.499	62.33
548.835	62.22
549.172	62.27
549.509	62.18
549.845	62.2
550.182	62.3
550.518	62.04
550.855	62.36
551.191	62.49
551.528	62.37
551.864	62.5
552.2	62.51
552.537	62.76
552.873	62.96
553.209	63.06
553.545	63.14
553.881	62.87
554.217	62.73
554.553	62.86
554.889	62.8
555.225	62.58
555.561	62.67
555.896	62.65
556.232	62.74
556.568	62.89
556.903	62.84
557.239	62.89
557.575	62.93
557.91	63.14
558.245	63.24
558.581	63.4
558.916	63.68
559.252	63.67
559.587	63.84
559.922	64.08
560.257	64.16
560.592	64.26
560.928	64.26
561.263	64.32
561.598	64.29
561.933	64.24
562.267	64.38
562.602	64.31
562.937	64.24
563.272	64.4
563.607	64.82
563.941	64.96
564.276	64.97
564.611	65.07
564.945	65.06
565.28	65.14
565.614	65.22
565.949	65.2
566.283	65.24
566.617	65.18
566.951	65.08
567.286	65.09
567.62	65.24
567.954	65.22
568.288	65.22
568.622	65.22
568.956	65.22
569.29	65.37
569.624	65.43
569.958	65.46
570.292	65.54
570.626	65.54
570.959	65.62
571.293	65.73
571.627	65.75
571.96	65.46
572.294	65.35
572.627	65.36
572.961	65.26
573.294	65.31
573.627	65.28
573.961	65.28
574.294	65.34
574.627	65.3
574.961	65.44
575.294	65.55
575.627	65.47
575.96	65.36
576.293	65.33
576.626	65.27
576.959	65.22
577.292	65.2
577.624	64.99
577.957	65.07
578.29	65.25
578.623	65.22
578.955	65.18
579.288	65.33
579.62	65.29
579.953	65.31
580.285	65.44
580.618	65.48
580.95	65.64
581.282	65.62
581.615	65.69
581.947	65.69
582.279	65.7
582.611	65.71
582.943	65.72
583.275	65.57
583.607	65.53
583.939	65.52
584.271	65.58
584.603	65.69
584.935	65.66
585.267	65.82
585.598	65.81
585.93	66.05
586.262	65.98
586.593	65.9
586.925	65.85
587.256	65.92
587.588	65.69
587.919	65.73
588.25	65.67
588.582	65.69
588.913	65.86
589.244	65.68
589.575	65.84
589.907	65.89
590.238	65.92
590.569	65.99
590.9	66.16
591.231	66.11
591.562	66.37
591.892	66.3
592.223	66.38
592.554	66.39
592.885	66.31
593.215	66.25
593.546	66.19
593.877	66.29
594.207	66.26
594.538	66.27
594.868	66.19
595.198	66.4
595.529	66.48
595.859	66.62
596.189	66.71
596.52	66.7
596.85	66.85
597.18	66.85
597.51	66.94
597.84	66.95
598.17	66.89
598.5	67.09
598.83	67.15
599.16	67.08
599.489	67.11
599.819	67.08
600.149	67.06
600.479	66.9
600.808	66.82
601.138	66.83
601.467	66.85
601.797	66.88
602.126	66.85
602.456	66.72
602.785	66.72
603.114	66.7
603.443	66.61
603.773	66.74
604.102	66.58
604.431	66.4
604.76	66.45
605.089	66.25
605.418	66.08
605.747	65.95
606.076	65.83
606.405	65.75
606.733	65.67
607.062	65.46
607.391	65.35
607.72	65.3
608.048	64.99
608.377	65.08
608.705	65.24
609.034	65.21
609.362	65.33
609.69	65.45
610.019	65.42
610.347	65.36
610.675	65.49
611.004	65.45
611.332	65.43
611.66	65.57
611.988	65.38
612.316	65.61
612.644	65.6
612.972	65.52
613.3	65.49
613.627	65.52
613.955	65.67
614.283	65.79
614.611	66.19
614.938	66.27
615.266	66.53
615.593	66.48
615.921	66.46
616.248	66.87
616.576	66.99
616.903	67.13
617.23	67.23
617.558	67.24
617.885	67.38
618.212	67.41
618.539	67.35
618.866	67.57
619.193	67.73
619.52	67.66
619.847	67.37
620.174	67.36
620.501	67.33
620.828	67.44
621.155	67.56
621.481	67.66
621.808	67.84
622.135	67.78
622.461	68.09
622.788	68.04
623.114	67.94
623.441	67.84
623.767	67.87
624.093	68.02
624.42	68.04
624.746	68.26
625.072	68.54
625.398	69.07
625.725	69.21
626.051	69.29
626.377	69.39
626.703	69.71
627.029	69.6
627.354	69.73
627.68	70.22
628.006	70.39
628.332	70.16
628.658	70.3
628.983	70.7
629.309	70.97
629.634	71.33
629.96	71.27
630.285	71.71
630.611	71.59
630.936	71.53
631.262	71.22
631.587	71.84
631.912	72.23
632.237	72.55
632.562	72.85
632.887	72.35
633.213	72.25
633.538	72.23
633.863	71.67
634.187	71.9
634.512	72.34
634.837	71.94
635.162	71.69
635.487	71.5
635.811	71
636.136	71.01
636.461	71.6
636.785	71.42
637.11	71.06
637.434	70.61
637.758	70.69
638.083	70.83
638.407	70.79
638.731	70.72
639.056	70.57
639.38	70.99
639.704	71.21
640.028	71.06
640.352	70.98
640.676	70.58
641	71.3
641.324	70.77
641.648	69.82
641.972	70.72
642.295	70.43
642.619	70.18
642.943	70.27
643.266	69.62
643.59	68.99
643.913	69.51
644.237	69.43
644.56	69.51
644.884	69.54
645.207	69.72
645.53	69.86
645.854	69.92
646.177	70.05
646.5	70.25
646.823	70.19
647.146	71.06
647.469	70.89
647.792	70.46
648.115	70.74
648.438	70.68
648.761	71.16
649.084	70.58
649.406	69.81
649.729	68.95
650.052	68.44
650.374	68.17
650.697	68.05
651.019	68.17
651.342	68.47
651.664	68.7
651.987	68.46
652.309	68.52
652.631	68.66
652.953	68.47
653.276	68.46
653.598	68.49
653.92	68.38
654.242	68.33
654.564	68.29
654.886	68.2
655.208	67.91
655.53	67.85
655.851	67.81
656.173	67.65
656.495	67.9
656.816	67.57
657.138	67.32
657.46	67.82
657.781	69.41
658.103	70.22
658.424	72.13
658.746	73.65
659.067	74.26
659.388	74.03
659.709	74.05
660.031	74.74
660.352	75.07
660.673	73.99
660.994	74.48
661.315	75.16
661.636	75.04
661.957	74.94
662.278	74.31
662.599	73.47
662.919	74.36
663.24	74.34
663.561	74.58
663.881	74.64
664.202	74.83
664.523	74.49
664.843	74.11
665.164	74.68
665.484	73.22
665.804	73.35
666.125	73.91
666.445	72.59
666.765	71.54
667.085	70.86
667.405	71.84
667.726	72.63
668.046	72.64
668.366	72.39
668.686	72.59
669.005	72.86
669.325	72.87
669.645	73.99
669.965	74.87
670.285	75.26
670.604	76.04
670.924	75.52
671.243	74.63
671.563	74.82
671.882	74.26
672.202	74.51
672.521	73.82
672.841	73.99
673.16	73.56
673.479	74.32
673.798	74.8
674.117	75.14
674.437	75.27
674.756	75.16
675.075	74.86
675.394	74.08
675.713	72.77
676.031	72.14
676.35	72.59
676.669	73.01
676.988	72.78
677.306	71.29
677.625	71.09
677.944	70.9
678.262	71.16
678.581	71.42
678.899	71.15
679.218	71.71
679.536	72.11
679.854	72.51
680.172	72.83
680.491	73.37
680.809	73.54
681.127	73.44
681.445	73.02
681.763	73.17
682.081	72.26
682.399	72.82
682.717	72.66
683.035	72.85
683.352	71.8
683.67	72.12
683.988	73.25
684.306	73.14
684.623	71.89
684.941	72.08
685.258	73.83
685.576	73.98
685.893	73.6
686.211	73.72
686.528	74.27
686.845	75.33
687.162	76.74
687.48	75.84
687.797	75.76
688.114	75.31
688.431	75.48
688.748	75.71
689.065	75.23
689.382	75.51
689.699	74.94
690.015	74.86
690.332	74.49
690.649	75.17
690.966	74.91
691.282	76.19
691.599	76.43
691.915	76.14
692.232	76.15
692.548	77.2
692.865	77.57
693.181	75.71
693.497	75.08
693.813	74.82
694.13	73.55
694.446	72.46
694.762	72.07
695.078	70.77
695.394	72.15
695.71	72.62
696.026	73.36
696.342	73.14
696.658	72.73
696.973	71.94
697.289	73.56
697.605	73.99
697.92	74.84
698.236	76.97
698.551	76.88
698.867	78.72
699.182	77.72
699.498	76.44
699.813	76.48
700.128	76.08
700.444	76.35
700.759	76.35
701.074	78.43
701.389	79.11
701.704	79.94
702.019	81.09
702.334	81.07
702.649	80.13
702.964	80.07
703.279	79.32
703.594	78.97
703.908	78.2
704.223	78.6
704.538	79.11
704.852	80.66
705.167	79.68
705.481	79.09
705.796	78.97
706.11	77.63
706.425	77.71
706.739	76.37
707.053	76.56
707.368	78.24
707.682	78.1
707.996	79.18
708.31	79.7
708.624	79.51
708.938	78.63
709.252	78.02
709.566	78.18
709.88	77.65
710.193	77.38
710.507	77.4
710.821	79.08
711.135	79.28
711.448	78.54
711.762	79.11
712.075	77.94
712.389	77.71
712.702	77.09
713.015	77.2
713.329	75.35
713.642	76.06
713.955	76.66
714.269	75.6
714.582	75.88
714.895	77.42
715.208	75.98
715.521	76.28
715.834	75.34
716.147	75.73
716.459	75.43
716.772	75.37
717.085	76.99
717.398	75.39
717.71	75.79
718.023	75.73
718.336	76.93
718.648	74.68
718.961	74.87
719.273	76.63
719.585	74.73
719.898	76.69
720.21	76.37
720.522	75.28
720.834	76.86
721.147	79.34
721.459	76.74
721.771	74.09
722.083	75.17
722.395	76.47
722.707	74.58
723.019	74.77
723.33	74.3
723.642	74.14
723.954	73.11
724.265	74.07
724.577	74.33
724.889	71.52
725.2	73.84
725.512	74.15
725.823	74.6
726.135	75.18
726.446	74.5
726.757	72.95
727.068	72.67
727.38	74.22
727.691	73.07
728.002	74.36
728.313	75.11
728.624	74.16
728.935	73.64
729.246	74.91
729.557	76.13
729.867	76.37
730.178	76.98
730.489	76.51
730.8	77.01
731.11	77.25
731.421	77.41
731.731	78.02
732.042	76.5
732.352	76.31
732.663	77.16
732.973	76.54
733.283	75.73
733.594	74.66
733.904	73.95
734.214	74.95
734.524	77.26
734.834	78.43
735.144	77.69
735.454	78.54
735.764	76.95
736.074	77.1
736.384	76.11
736.694	75.89
737.003	76.75
737.313	76.33
737.623	74.41
737.932	73.85
738.242	75.66
738.551	76.95
738.861	76.72
739.17	76.64
739.479	75.82
739.789	76.87
740.098	78.22
740.407	78.55
740.716	78.73
741.025	81.62
741.334	84.2
741.643	83.87
741.952	85.03
742.261	84.66
742.57	80.31
742.879	81.1
743.188	78.84
743.497	79.5
743.805	77.64
744.114	80.68
744.422	83.27
744.731	81.89
745.04	84.53
745.348	86.6
745.656	84.89
745.965	87.08
746.273	83.57
746.581	87.61
746.889	88.58
747.198	89.82
747.506	91
747.814	87.62
748.122	87.86
748.43	87.24
748.738	85.16
749.046	84.63
749.353	87.11
749.661	85.57
749.969	81.97
750.277	84.41
750.584	85.95
750.892	85.45
751.199	87.99
751.507	88.13
751.814	87.12
752.122	85.33
752.429	83.6
752.736	81.22
753.044	82.49
753.351	83.87
753.658	79.93
753.965	79.52
754.272	77.14
754.579	76.46
754.886	75.81
755.193	74.73
755.5	76.31
755.807	77.03
756.114	78.14
756.42	78.06
756.727	78.83
757.034	77.91
757.34	78.46
757.647	80.42
757.953	79.49
758.26	77.48
758.566	80.39
758.872	76.87
759.179	79.43
759.485	78.48
759.791	76.82
760.097	76.72
760.403	76.68
760.709	76.67
761.015	75.32
761.321	77.93
761.627	80.97
761.933	79.9
762.239	80.75
762.545	81.87
762.851	83.97
763.156	83.47
763.462	84.08
763.767	82.54
764.073	86.14
764.378	85.9
764.684	84.85
764.989	85.37
765.295	87.97
765.6	89.39
765.905	90.9
766.21	87.59
766.515	92.61
766.821	90.16
767.126	90.81
767.431	94.48
767.736	98.27
768.041	99.24
768.345	99.52
768.65	98.65
768.955	98.94
769.26	97.1
769.564	99.11
769.869	95.04
770.174	94.96
770.478	90.58
770.783	90.84
771.087	89.76
771.391	88.56
771.696	85.61
772	83.77
772.304	90.33
772.608	94.65
772.913	96.35
773.217	101.11
773.521	100.85
773.825	108.59
774.129	102.76
774.433	108.56
774.736	107.46
775.04	107.75
775.344	107.11
775.648	113.17
775.951	114.86
776.255	135.25
776.559	138.21
776.862	139.35
777.166	129.75
777.469	131.81
777.772	140.48
778.076	157.31
778.379	160.48
778.682	147.18
778.985	153.24
779.289	146.05
779.592	153.39
779.895	154.3
780.198	154.52
780.501	145.01
780.804	157.54
781.106	161.06
781.409	159
781.712	170.41
782.015	169.66
782.317	157.29
782.62	164.79
782.923	178.53
783.225	173.36
783.527	173.13
783.83	146.36
784.132	153.65
784.435	149.02
784.737	167.48
785.039	184.8
785.341	178.89
785.643	177.7
785.945	165.41
786.248	191.47
786.55	184.7
786.851	179.21
787.153	169.95
787.455	163.2
787.757	156.04
788.059	157.18
788.36	143.16
788.662	131.34
788.964	127.98
789.265	118.87
789.567	116.69
789.868	126.77
790.17	118.8
790.471	111.13
790.772	114.1
791.074	114.31
791.375	130.37
791.676	122.85
791.977	128.01
792.278	113.27
792.579	110.47
792.88	115.01
793.181	114.21
793.482	116.23
793.783	111.67
794.083	110.51
794.384	109.96
794.685	104.05
794.986	105.96
795.286	106.23
795.587	111.9
795.887	115.45
796.188	140.52
796.488	161.86
796.788	180.29
797.089	172.3
797.389	161.55
797.689	203.82
797.989	225.98
798.289	221.4
798.589	209.75
798.889	172.78
799.189	176.29
799.489	179.37
799.789	222.51
800.089	209.65
800.389	218.49
800.688	182.93
800.988	191.45
801.288	251.7
801.587	235.15
801.887	307.67
802.186	303.9
802.486	231.3
802.785	262.08
803.085	292.9
803.384	293.26
803.683	213.8
803.982	176.6
804.281	203.42
804.58	252.81
804.879	318.11
805.178	241.8
805.477	218.15
805.776	256.21
806.075	227.61
806.374	237.69
806.673	245.15
806.971	229.04
807.27	245.98
807.569	283.89
807.867	289.65
808.166	288.97
808.464	274.58
808.763	261.27
809.061	271.68
809.359	292.13
809.658	313.56
809.956	459.81
810.254	388.52
810.552	278.81
810.85	313.51
811.148	397.16
811.446	351.47
811.744	308.38
812.042	303.37
812.34	296.98
812.638	320.82
812.935	344.01
813.233	338.93
813.531	372.3
813.828	319.49
814.126	212.05
814.423	228.51
814.721	191.37
815.018	181.56
815.316	171.03
815.613	172.47
815.91	165.24
816.207	152.82
816.504	150.93
816.802	130.43
817.099	134.65
817.396	117.07
817.693	140.45
817.99	157.1
818.286	145.15
818.583	133.73
818.88	136.05
819.177	125.13
819.473	117.8
819.77	123.38
820.067	106.22
820.363	87.61
820.66	77.57
820.956	89.32
821.252	95.92
821.549	116.15
821.845	107.86
822.141	133.41
822.437	144.61
822.734	164.11
823.03	217.19
823.326	211.49
823.622	219.16
823.918	178.36
824.213	199.62
824.509	240.4
824.805	225.78
825.101	190.24
825.397	172.92
825.692	149.33
825.988	205.48
826.283	203.06
826.579	356.7
826.874	225.39
827.17	220.18
827.465	309.56
827.76	2526.8
828.056	-354.09
828.351	-503.1
828.646	-749.5
828.941	-1103.79
829.236	-1530.8
829.531	-808.04
829.826	5361.64
830.121	488.86
830.416	480.24
830.711	1270.93
831.006	-1552.23
831.3	-2185.12
831.595	-1048.29
831.89	-725.54
832.184	-838.11
832.479	-547.77
832.773	-522.99
833.068	-299.29
833.362	-3205.46
833.656	-2691.77
833.951	-7091.95
834.245	-1672.12
834.539	808
834.833	832.62
835.127	497.61
835.421	302.69
835.715	287.51
836.009	339.61
836.303	651.55
836.597	1527.06
836.891	820.39
837.185	630.89
837.478	663.32
837.772	597.74
838.066	395.22
838.359	283.16
838.653	269.89
838.946	261.32
839.24	223.59
839.533	228.09
839.826	189.4
840.119	197.32
840.413	196.6
840.706	189
840.999	159.36
841.292	165.07
841.585	143.95
841.878	212.54
842.171	235.97
842.464	277.86
842.757	306.02
843.049	293.72
843.342	381.62
843.635	231.95
843.927	162.68
844.22	148.47
844.513	169.68
844.805	144.98
845.098	132.83
845.39	143.41
845.682	129.99
845.975	131.71
846.267	131.57
846.559	176.94
846.851	157.82
847.143	112.1
847.435	116.58
847.727	198.99
848.019	-1003.88
848.311	555.27
848.603	745.27
848.895	-2985.45
849.186	468.92
849.478	288.68
849.77	408.53
850.061	509.27
850.353	316.09
850.645	228.3
850.936	553.74
851.227	1302.15
851.519	732.77
851.81	885.41
852.101	-1357.89
852.393	-1225.12
852.684	-26657.14
852.975	1539.64
853.266	1142.35
853.557	-1500.5
853.848	1286.26
854.139	642.14
854.43	616.27
854.72	1135.81
855.011	1004.24
855.302	573.03
855.593	744.79
855.883	334.25
856.174	362.77
856.464	376.79
856.755	357.77
857.045	263.55
857.336	288.2
857.626	321.12
857.916	375.28
858.206	267.23
858.497	251.42
858.787	299.17
859.077	285.31
859.367	253.1
859.657	278
859.947	364.2
860.237	385.73
860.527	436.04
860.816	382.54
861.106	383.7
861.396	423.73
861.685	348.05
861.975	388.54
862.265	334.5
862.554	284.67
862.844	312.56
863.133	392.04
863.422	438.73
863.712	652.05
864.001	2104.15
864.29	-4447.06
864.579	-2524.42
864.868	-1740.43
865.157	-18022.22
865.446	9276.92
865.735	-1740.93
866.024	7816
866.313	-2200
866.602	-994.74
866.891	-740.51
867.179	-474.65
867.468	-391.58
