Data from T1_Reflection__65__17-44-54-634.txt Node

Date: Wed Jun 02 17:44:54 CEST 2021
User: mabdelazizm
Spectrometer: FLMS18565
Trigger mode: 0
Integration Time (sec): 2.000000E0
Scans to average: 1
Electric dark correction enabled: true
Nonlinearity correction enabled: false
Boxcar width: 12
XAxis mode: Wavelengths
Number of Pixels in Spectrum: 2048
>>>>>Begin Spectral Data<<<<<
179.071	153.05
179.452	340.5
179.833	157.58
180.214	276.19
180.595	-4206.06
180.977	290.49
181.358	595.12
181.739	384
182.12	158.32
182.501	190.03
182.882	97.68
183.262	131.29
183.643	673.76
184.024	-77.02
184.405	-13.78
184.786	13.62
185.166	20.38
185.547	19.41
185.927	17.34
186.308	18.79
186.689	18.37
187.069	14.87
187.449	17.6
187.83	20.06
188.21	12.34
188.59	9.08
188.971	5.1
189.351	-1.39
189.731	2.63
190.111	5.74
190.491	5.54
190.871	2.71
191.251	3.62
191.631	1.71
192.011	2.95
192.391	4.27
192.771	6.15
193.151	6.85
193.531	6.36
193.91	5.1
194.29	2.13
194.67	0.27
195.049	0.26
195.429	-0.48
195.808	-0.59
196.188	-0.3
196.567	0.12
196.946	-0.9
197.326	-0.49
197.705	0.39
198.084	2.3
198.464	3.7
198.843	6.25
199.222	6.76
199.601	6.46
199.98	5.72
200.359	6.63
200.738	6.66
201.117	6.73
201.496	7.02
201.875	6.62
202.254	5.65
202.632	4.85
203.011	5.18
203.39	5.51
203.768	6.45
204.147	6.78
204.525	6.55
204.904	6.6
205.282	7.54
205.661	6.85
206.039	7.91
206.418	7.17
206.796	7.53
207.174	7.97
207.552	7.9
207.931	7.7
208.309	6.25
208.687	6.4
209.065	6.82
209.443	6.96
209.821	7.18
210.199	6.64
210.577	6.78
210.954	5.9
211.332	6.01
211.71	6.39
212.088	6.64
212.465	6.48
212.843	6.4
213.221	6.37
213.598	5.98
213.976	5.81
214.353	5.39
214.731	4.46
215.108	5.26
215.485	4.26
215.863	4.42
216.24	3.79
216.617	4.14
216.994	3.71
217.371	3.67
217.749	4.26
218.126	4.15
218.503	3.9
218.88	4.3
219.256	4.07
219.633	4.01
220.01	4.26
220.387	4.54
220.764	4.66
221.14	4.59
221.517	4.57
221.894	4.39
222.27	4.24
222.647	4.02
223.023	4.24
223.4	4.06
223.776	4.4
224.153	4.52
224.529	4.37
224.905	4.61
225.282	4.65
225.658	4.59
226.034	4.07
226.41	4.33
226.786	4.28
227.162	4.14
227.538	3.92
227.914	3.87
228.29	3.55
228.666	3.44
229.042	3.35
229.418	2.96
229.793	3.15
230.169	2.92
230.545	2.7
230.92	2.55
231.296	2.51
231.672	2.62
232.047	2.64
232.422	2.63
232.798	2.61
233.173	2.53
233.549	2.53
233.924	2.37
234.299	2.34
234.674	2.3
235.05	2.24
235.425	2.3
235.8	2.25
236.175	2.23
236.55	2.24
236.925	2.22
237.3	2.32
237.675	2.4
238.049	2.56
238.424	2.65
238.799	2.73
239.174	2.54
239.548	2.62
239.923	2.7
240.297	2.85
240.672	2.76
241.046	2.71
241.421	2.57
241.795	2.39
242.17	2.37
242.544	2.32
242.918	2.18
243.293	2.11
243.667	2.03
244.041	2.08
244.415	2.09
244.789	2.13
245.163	2.08
245.537	2
245.911	1.88
246.285	1.96
246.659	1.87
247.033	1.98
247.406	1.81
247.78	1.73
248.154	1.76
248.528	1.9
248.901	1.83
249.275	1.84
249.648	1.88
250.022	1.99
250.395	2.08
250.769	2.14
251.142	2.23
251.515	2.27
251.888	2.29
252.262	2.43
252.635	2.55
253.008	2.56
253.381	2.51
253.754	2.54
254.127	2.49
254.5	2.53
254.873	2.56
255.246	2.63
255.619	2.52
255.992	2.51
256.364	2.37
256.737	2.42
257.11	2.48
257.483	2.48
257.855	2.38
258.228	2.44
258.6	2.48
258.973	2.45
259.345	2.39
259.718	2.34
260.09	2.32
260.462	2.31
260.834	2.3
261.207	2.27
261.579	2.2
261.951	2.12
262.323	2.19
262.695	2.17
263.067	2.08
263.439	2.08
263.811	2.06
264.183	2.05
264.555	2.03
264.927	2.09
265.298	2.1
265.67	2.1
266.042	2.02
266.413	1.98
266.785	1.96
267.156	2.01
267.528	1.99
267.899	1.92
268.271	1.85
268.642	1.91
269.013	1.91
269.385	1.9
269.756	1.9
270.127	1.89
270.498	1.98
270.87	2.02
271.241	2.08
271.612	2
271.983	2.03
272.354	2.06
272.724	2.12
273.095	2.22
273.466	2.26
273.837	2.29
274.208	2.31
274.578	2.26
274.949	2.35
275.32	2.37
275.69	2.39
276.061	2.39
276.431	2.37
276.802	2.34
277.172	2.31
277.542	2.3
277.913	2.23
278.283	2.18
278.653	2.21
279.023	2.21
279.394	2.22
279.764	2.21
280.134	2.11
280.504	2.09
280.874	2.03
281.244	1.97
281.614	1.98
281.983	1.87
282.353	1.82
282.723	1.8
283.093	1.79
283.462	1.71
283.832	1.7
284.202	1.71
284.571	1.77
284.941	1.71
285.31	1.71
285.68	1.68
286.049	1.66
286.418	1.64
286.788	1.77
287.157	1.76
287.526	1.63
287.895	1.57
288.264	1.6
288.633	1.63
289.002	1.53
289.371	1.6
289.74	1.5
290.109	1.52
290.478	1.47
290.847	1.45
291.216	1.45
291.585	1.31
291.953	1.29
292.322	1.27
292.691	1.28
293.059	1.26
293.428	1.23
293.796	1.25
294.165	1.23
294.533	1.23
294.901	1.27
295.27	1.33
295.638	1.37
296.006	1.17
296.374	1.15
296.743	1.27
297.111	1.33
297.479	1.31
297.847	1.25
298.215	1.33
298.583	1.31
298.95	1.29
299.318	1.3
299.686	1.31
300.054	1.42
300.422	1.43
300.789	1.52
301.157	1.47
301.525	1.49
301.892	1.42
302.26	1.4
302.627	1.33
302.994	1.27
303.362	1.3
303.729	1.25
304.097	1.24
304.464	1.28
304.831	1.26
305.198	1.25
305.565	1.29
305.932	1.24
306.299	1.22
306.666	1.19
307.033	1.17
307.4	1.16
307.767	1.12
308.134	1.22
308.501	1.29
308.867	1.28
309.234	1.21
309.601	1.26
309.967	1.21
310.334	1.26
310.701	1.21
311.067	1.27
311.433	1.32
311.8	1.33
312.166	1.37
312.533	1.44
312.899	1.41
313.265	1.37
313.631	1.34
313.997	1.3
314.363	1.3
314.729	1.25
315.096	1.23
315.461	1.23
315.827	1.21
316.193	1.28
316.559	1.26
316.925	1.29
317.291	1.27
317.656	1.19
318.022	1.26
318.388	1.31
318.753	1.25
319.119	1.28
319.484	1.31
319.85	1.36
320.215	1.38
320.581	1.39
320.946	1.39
321.311	1.38
321.676	1.36
322.042	1.36
322.407	1.32
322.772	1.29
323.137	1.34
323.502	1.4
323.867	1.35
324.232	1.35
324.597	1.25
324.962	1.24
325.327	1.17
325.691	1.13
326.056	1.08
326.421	1.05
326.785	1.07
327.15	1.08
327.514	0.97
327.879	1.05
328.243	1
328.608	0.85
328.972	0.78
329.337	0.74
329.701	0.69
330.065	0.68
330.429	0.63
330.794	0.59
331.158	0.62
331.522	0.61
331.886	0.64
332.25	0.66
332.614	0.59
332.978	0.63
333.342	0.6
333.705	0.76
334.069	0.83
334.433	0.85
334.797	0.86
335.16	0.84
335.524	0.85
335.887	0.87
336.251	0.84
336.614	0.89
336.978	0.84
337.341	0.83
337.705	0.93
338.068	1.03
338.431	1.05
338.794	1.06
339.158	0.97
339.521	1
339.884	0.94
340.247	0.97
340.61	1.01
340.973	0.89
341.336	0.86
341.699	0.86
342.062	0.87
342.424	0.94
342.787	0.86
343.15	0.81
343.512	0.72
343.875	0.72
344.238	0.77
344.6	0.79
344.963	0.73
345.325	0.67
345.688	0.58
346.05	0.56
346.412	0.59
346.775	0.54
347.137	0.46
347.499	0.49
347.861	0.44
348.223	0.49
348.585	0.5
348.947	0.49
349.309	0.4
349.671	0.4
350.033	0.56
350.395	0.56
350.757	0.55
351.118	0.54
351.48	0.53
351.842	0.46
352.203	0.44
352.565	0.64
352.927	0.63
353.288	0.6
353.65	0.61
354.011	0.66
354.372	0.73
354.734	0.78
355.095	0.83
355.456	0.79
355.817	0.82
356.179	0.82
356.54	0.83
356.901	0.91
357.262	0.9
357.623	0.9
357.984	1
358.345	1.06
358.705	1.04
359.066	0.99
359.427	0.93
359.788	0.95
360.148	1
360.509	1.01
360.87	1.12
361.23	1.2
361.591	1.14
361.951	1.17
362.312	1.2
362.672	1.18
363.032	1.09
363.393	1.13
363.753	1.23
364.113	1.19
364.473	1.26
364.833	1.27
365.193	1.17
365.553	1.2
365.913	1.27
366.273	1.39
366.633	1.41
366.993	1.34
367.353	1.4
367.713	1.4
368.072	1.32
368.432	1.41
368.792	1.38
369.151	1.32
369.511	1.31
369.87	1.25
370.23	1.21
370.589	1.07
370.949	0.99
371.308	0.92
371.667	0.92
372.027	0.95
372.386	0.87
372.745	0.78
373.104	0.74
373.463	0.7
373.822	0.72
374.181	0.83
374.54	0.87
374.899	0.79
375.258	0.66
375.617	0.59
375.975	0.53
376.334	0.41
376.693	0.39
377.052	0.45
377.41	0.45
377.769	0.48
378.127	0.46
378.486	0.47
378.844	0.48
379.202	0.46
379.561	0.48
379.919	0.58
380.277	0.55
380.636	0.58
380.994	0.61
381.352	0.69
381.71	0.75
382.068	0.8
382.426	0.8
382.784	0.8
383.142	0.79
383.5	0.78
383.857	0.81
384.215	0.91
384.573	0.98
384.931	1.01
385.288	0.93
385.646	0.88
386.003	0.91
386.361	0.93
386.718	1.02
387.076	1.1
387.433	1.03
387.791	1.06
388.148	1.03
388.505	0.99
388.862	1
389.22	1.14
389.577	1.1
389.934	1.17
390.291	1.16
390.648	1.11
391.005	1.1
391.362	1.13
391.718	1.12
392.075	1.09
392.432	1.08
392.789	0.99
393.145	1.01
393.502	1
393.859	1.2
394.215	1.26
394.572	1.36
394.928	1.26
395.285	1.25
395.641	1.23
395.997	1.29
396.354	1.35
396.71	1.4
397.066	1.51
397.422	1.69
397.778	1.72
398.134	1.72
398.491	1.85
398.846	1.85
399.202	1.9
399.558	1.91
399.914	2
400.27	2.05
400.626	2.18
400.981	2.28
401.337	2.39
401.693	2.6
402.048	2.7
402.404	2.76
402.759	2.76
403.115	3
403.47	3.19
403.826	3.39
404.181	3.44
404.536	3.61
404.892	3.71
405.247	3.8
405.602	3.96
405.957	4.05
406.312	4.17
406.667	4.18
407.022	4.37
407.377	4.5
407.732	4.68
408.087	4.85
408.442	5.11
408.796	5.15
409.151	5.36
409.506	5.46
409.86	5.59
410.215	5.63
410.57	5.86
410.924	5.92
411.279	6.02
411.633	6.29
411.987	6.45
412.342	6.63
412.696	6.84
413.05	7.19
413.404	7.28
413.758	7.56
414.113	7.87
414.467	8.12
414.821	8.36
415.175	8.65
415.529	9.12
415.882	9.19
416.236	9.39
416.59	9.62
416.944	9.93
417.298	10.2
417.651	10.52
418.005	10.74
418.358	11.13
418.712	11.59
419.065	11.88
419.419	12.06
419.772	12.41
420.126	12.79
420.479	13.09
420.832	13.32
421.185	13.66
421.539	13.95
421.892	14.11
422.245	14.46
422.598	14.82
422.951	15.16
423.304	15.44
423.657	15.81
424.01	16.22
424.363	16.6
424.715	17.1
425.068	17.53
425.421	17.95
425.773	18.19
426.126	18.54
426.479	18.98
426.831	19.39
427.184	19.51
427.536	19.73
427.889	20.09
428.241	20.42
428.593	20.69
428.945	21.09
429.298	21.34
429.65	21.57
430.002	21.96
430.354	22.18
430.706	22.4
431.058	22.71
431.41	22.98
431.762	23.27
432.114	23.52
432.466	23.79
432.817	23.91
433.169	24.01
433.521	24.35
433.872	24.52
434.224	24.66
434.576	24.96
434.927	25.11
435.279	25.28
435.63	25.35
435.981	25.76
436.333	26.05
436.684	26.3
437.035	26.3
437.387	26.57
437.738	26.74
438.089	26.91
438.44	27.14
438.791	27.15
439.142	27.5
439.493	27.76
439.844	27.93
440.195	27.93
440.545	27.97
440.896	28.18
441.247	28.31
441.598	28.35
441.948	28.48
442.299	28.53
442.649	28.68
443	28.72
443.35	28.73
443.701	28.83
444.051	28.87
444.401	29.08
444.752	29
445.102	28.98
445.452	29.03
445.802	29.22
446.152	29.36
446.502	29.56
446.852	29.71
447.202	29.74
447.552	29.96
447.902	29.95
448.252	30.03
448.602	31.75
448.952	31.96
449.301	32.24
449.651	32.39
450.001	32.45
450.35	32.74
450.7	33.02
451.049	33.18
451.399	33.53
451.748	33.72
452.097	34.04
452.447	34.26
452.796	34.34
453.145	34.6
453.494	34.92
453.843	35.16
454.193	35.45
454.542	35.76
454.891	35.93
455.239	36.05
455.588	36.19
455.937	36.62
456.286	36.97
456.635	37.16
456.984	37.49
457.332	36.02
457.681	36.21
458.03	36.45
458.378	36.74
458.727	37.07
459.075	37.27
459.423	37.58
459.772	37.85
460.12	38.05
460.468	38.32
460.817	38.46
461.165	38.71
461.513	38.93
461.861	39.29
462.209	39.49
462.557	39.56
462.905	39.61
463.253	39.77
463.601	39.95
463.949	39.96
464.297	40.03
464.644	40.1
464.992	40.03
465.34	40.25
465.687	40.25
466.035	40.26
466.383	40.29
466.73	40.17
467.078	40.11
467.425	40.15
467.772	40.07
468.12	39.81
468.467	39.85
468.814	39.73
469.161	39.65
469.508	39.57
469.856	39.42
470.203	39.59
470.55	39.34
470.897	39.29
471.243	39.42
471.59	39.46
471.937	39.42
472.284	39.38
472.631	39.37
472.977	39.41
473.324	39.43
473.671	39.4
474.017	39.19
474.364	39.19
474.71	39.02
475.057	38.97
475.403	39.03
475.749	38.97
476.096	38.82
476.442	38.87
476.788	39.06
477.134	39.01
477.48	38.96
477.826	39.16
478.172	39.29
478.518	39.4
478.864	39.52
479.21	39.75
479.556	39.79
479.902	39.78
480.248	39.73
480.593	39.83
480.939	39.94
481.285	39.99
481.63	40.06
481.976	40.19
482.321	40.2
482.667	40.45
483.012	40.61
483.357	40.76
483.703	41.01
484.048	41.28
484.393	41.55
484.738	41.94
485.084	42.2
485.429	42.4
485.774	42.69
486.119	42.94
486.464	43.15
486.808	43.38
487.153	43.73
487.498	43.95
487.843	44.07
488.188	44.37
488.532	44.71
488.877	45.13
489.222	45.42
489.566	45.71
489.911	46.13
490.255	46.5
490.6	46.8
490.944	47.18
491.288	47.38
491.633	47.61
491.977	47.99
492.321	48.28
492.665	48.36
493.009	48.67
493.353	48.88
493.697	48.93
494.041	49.17
494.385	49.29
494.729	49.65
495.073	50.1
495.417	50.41
495.76	50.55
496.104	50.75
496.448	50.98
496.791	51.26
497.135	51.34
497.479	51.43
497.822	51.78
498.165	51.98
498.509	52.13
498.852	52.34
499.196	52.51
499.539	52.67
499.882	52.88
500.225	53.09
500.568	53.3
500.911	53.37
501.254	53.71
501.597	53.81
501.94	53.9
502.283	54.14
502.626	54.3
502.969	54.54
503.312	54.62
503.654	54.53
503.997	54.57
504.34	54.78
504.682	54.96
505.025	55.13
505.367	55.18
505.71	55.33
506.052	55.54
506.395	55.45
506.737	55.6
507.079	55.89
507.421	55.92
507.764	56.03
508.106	56.12
508.448	56.28
508.79	56.37
509.132	56.4
509.474	56.56
509.816	56.49
510.158	56.51
510.499	56.63
510.841	56.72
511.183	56.75
511.525	56.7
511.866	56.62
512.208	56.69
512.549	56.85
512.891	56.91
513.232	56.85
513.574	56.8
513.915	56.84
514.256	56.95
514.598	56.89
514.939	57.06
515.28	57
515.621	56.79
515.962	56.86
516.303	56.88
516.644	56.83
516.985	56.82
517.326	56.79
517.667	56.8
518.008	56.72
518.349	56.71
518.69	56.8
519.03	56.7
519.371	56.69
519.712	56.55
520.052	56.68
520.393	56.8
520.733	56.81
521.074	56.63
521.414	56.55
521.754	56.48
522.095	56.57
522.435	56.62
522.775	56.54
523.115	56.69
523.455	56.58
523.795	56.53
524.135	56.6
524.475	56.56
524.815	56.52
525.155	56.61
525.495	56.64
525.835	56.63
526.175	56.5
526.514	56.65
526.854	56.75
527.194	56.77
527.533	56.79
527.873	56.96
528.212	57.16
528.552	57.16
528.891	57.02
529.23	57.05
529.57	56.98
529.909	56.89
530.248	56.93
530.587	56.85
530.927	56.86
531.266	56.93
531.605	56.84
531.944	56.96
532.283	57.02
532.621	57.13
532.96	57.21
533.299	57.34
533.638	57.44
533.977	57.64
534.315	57.74
534.654	57.93
534.992	57.93
535.331	57.87
535.67	57.65
536.008	57.83
536.346	57.84
536.685	57.69
537.023	57.65
537.361	57.68
537.7	57.69
538.038	57.88
538.376	57.9
538.714	57.84
539.052	57.92
539.39	57.95
539.728	57.98
540.066	58.21
540.404	58.12
540.741	58.17
541.079	58.01
541.417	57.78
541.755	57.69
542.092	57.63
542.43	57.35
542.767	57.21
543.105	57.19
543.442	57.12
543.78	57.29
544.117	57.49
544.454	57.24
544.792	57.06
545.129	57.21
545.466	57.33
545.803	57.43
546.14	57.26
546.477	57.28
546.814	57.34
547.151	57.46
547.488	57.6
547.825	57.46
548.162	57.36
548.499	57.19
548.835	57.09
549.172	57.1
549.509	57.16
549.845	57.22
550.182	57.11
550.518	57.01
550.855	57.22
551.191	57.38
551.528	57.19
551.864	57.25
552.2	57.07
552.537	57.19
552.873	57.41
553.209	57.57
553.545	57.55
553.881	57.49
554.217	57.36
554.553	57.56
554.889	57.45
555.225	57.36
555.561	57.36
555.896	57.05
556.232	57.1
556.568	57.14
556.903	57.14
557.239	57.13
557.575	57.13
557.91	57.18
558.245	57.4
558.581	57.63
558.916	57.81
559.252	57.81
559.587	57.58
559.922	57.82
560.257	57.86
560.592	57.97
560.928	57.76
561.263	57.7
561.598	57.83
561.933	57.75
562.267	57.87
562.602	58.06
562.937	57.94
563.272	58.24
563.607	58.36
563.941	58.55
564.276	58.83
564.611	58.99
564.945	59.13
565.28	59.09
565.614	59.02
565.949	58.86
566.283	58.96
566.617	58.86
566.951	58.79
567.286	58.81
567.62	58.87
567.954	59.28
568.288	59.28
568.622	59.11
568.956	59.07
569.29	59.2
569.624	59.31
569.958	59.35
570.292	59.46
570.626	59.38
570.959	59.52
571.293	59.75
571.627	59.64
571.96	59.75
572.294	59.55
572.627	59.38
572.961	59.34
573.294	59.37
573.627	59.37
573.961	59.47
574.294	59.68
574.627	59.65
574.961	59.78
575.294	59.7
575.627	59.63
575.96	59.46
576.293	59.3
576.626	59.22
576.959	59.22
577.292	59.14
577.624	59.1
577.957	59.16
578.29	59.22
578.623	59.19
578.955	59.33
579.288	59.25
579.62	59.06
579.953	59.09
580.285	59.13
580.618	59.27
580.95	59.61
581.282	59.6
581.615	59.6
581.947	59.66
582.279	59.64
582.611	59.63
582.943	59.52
583.275	59.5
583.607	59.65
583.939	59.65
584.271	59.81
584.603	59.84
584.935	59.97
585.267	60.1
585.598	60.38
585.93	60.48
586.262	60.47
586.593	60.42
586.925	60.39
587.256	60.35
587.588	60.26
587.919	60.39
588.25	60.46
588.582	60.26
588.913	60.38
589.244	60.21
589.575	60.23
589.907	60.26
590.238	60.4
590.569	60.54
590.9	60.67
591.231	60.79
591.562	60.73
591.892	60.68
592.223	60.9
592.554	60.94
592.885	60.87
593.215	60.69
593.546	60.78
593.877	60.68
594.207	60.5
594.538	60.37
594.868	60.3
595.198	60.42
595.529	60.31
595.859	60.38
596.189	60.5
596.52	60.37
596.85	60.55
597.18	60.54
597.51	60.46
597.84	60.43
598.17	60.32
598.5	60.28
598.83	60.39
599.16	60.29
599.489	60.34
599.819	60.24
600.149	60.23
600.479	60.08
600.808	59.94
601.138	59.92
601.467	59.98
601.797	59.85
602.126	59.69
602.456	59.79
602.785	59.93
603.114	59.77
603.443	59.65
603.773	59.74
604.102	59.77
604.431	59.53
604.76	59.61
605.089	59.49
605.418	59.47
605.747	59.37
606.076	59.33
606.405	59.41
606.733	59.43
607.062	59.31
607.391	59.25
607.72	59.18
608.048	59.34
608.377	59.45
608.705	59.63
609.034	59.64
609.362	59.8
609.69	59.9
610.019	59.98
610.347	60.15
610.675	60.24
611.004	60.27
611.332	60.61
611.66	60.81
611.988	60.8
612.316	60.66
612.644	60.73
612.972	60.7
613.3	60.61
613.627	60.53
613.955	60.71
614.283	60.83
614.611	60.9
614.938	60.86
615.266	60.88
615.593	60.71
615.921	60.68
616.248	60.64
616.576	60.58
616.903	60.36
617.23	60.4
617.558	60.46
617.885	60.5
618.212	60.56
618.539	60.45
618.866	60.71
619.193	60.44
619.52	60.16
619.847	59.97
620.174	60.22
620.501	60.54
620.828	60.57
621.155	60.55
621.481	60.45
621.808	60.47
622.135	60.26
622.461	60.74
622.788	60.97
623.114	60.86
623.441	60.93
623.767	61.19
624.093	61.32
624.42	61.24
624.746	61.77
625.072	61.89
625.398	62.26
625.725	62.27
626.051	62.08
626.377	62.02
626.703	62.06
627.029	61.57
627.354	61.69
627.68	61.71
628.006	62.11
628.332	61.33
628.658	61.34
628.983	61.66
629.309	61.87
629.634	62.57
629.96	62.81
630.285	63.47
630.611	63.3
630.936	63.38
631.262	63.57
631.587	63.61
631.912	63.53
632.237	63.68
632.562	64.28
632.887	63.26
633.213	63.3
633.538	63.2
633.863	63.38
634.187	63.78
634.512	63.82
634.837	63.79
635.162	64.12
635.487	63.93
635.811	63.53
636.136	63.28
636.461	63.84
636.785	63.9
637.11	64.18
637.434	64.01
637.758	63.78
638.083	63.57
638.407	63.52
638.731	63.2
639.056	62.85
639.38	63.04
639.704	63.61
640.028	63.89
640.352	63.95
640.676	63.37
641	64.31
641.324	64.38
641.648	64.19
641.972	64.05
642.295	63.88
642.619	64.52
642.943	64.97
643.266	64.57
643.59	64.76
643.913	65.32
644.237	65.05
644.56	65.27
644.884	64.96
645.207	64.87
645.53	65.31
645.854	65.53
646.177	65.37
646.5	65.04
646.823	65.32
647.146	65.87
647.469	66.06
647.792	65.66
648.115	65.54
648.438	65.81
648.761	67.38
649.084	66.59
649.406	65.03
649.729	63.31
650.052	62.86
650.374	62.58
650.697	62.26
651.019	62.18
651.342	62.4
651.664	62.45
651.987	62.36
652.309	62.64
652.631	62.7
652.953	62.43
653.276	62.33
653.598	62.15
653.92	62.07
654.242	62.24
654.564	62.19
654.886	62.07
655.208	61.74
655.53	61.79
655.851	61.88
656.173	61.88
656.495	61.83
656.816	60.84
657.138	60.15
657.46	60.37
657.781	62.05
658.103	62.71
658.424	64.39
658.746	65.22
659.067	65.49
659.388	64.29
659.709	64.5
660.031	65.15
660.352	64.29
660.673	63.48
660.994	64.23
661.315	64.79
661.636	64.59
661.957	64.11
662.278	63.47
662.599	63.33
662.919	62.83
663.24	62.59
663.561	62.75
663.881	63.1
664.202	62.85
664.523	62.44
664.843	62.23
665.164	62.87
665.484	61.71
665.804	61.97
666.125	62.04
666.445	60.97
666.765	60.61
667.085	60.25
667.405	61.09
667.726	61.98
668.046	61.43
668.366	61.22
668.686	61.43
669.005	62.4
669.325	61.85
669.645	62.66
669.965	63.55
670.285	62.08
670.604	61.99
670.924	62.35
671.243	62.56
671.563	61.74
671.882	61.54
672.202	62.44
672.521	62.62
672.841	62.42
673.16	62.29
673.479	63.31
673.798	64.01
674.117	64.41
674.437	64.79
674.756	65.45
675.075	65.04
675.394	64.47
675.713	62.54
676.031	62.72
676.35	63.57
676.669	63.83
676.988	63.88
677.306	63.72
677.625	64.12
677.944	64.03
678.262	65.35
678.581	66.06
678.899	66.43
679.218	66.58
679.536	67.23
679.854	66.69
680.172	66.17
680.491	66.62
680.809	66.99
681.127	66.19
681.445	65.72
681.763	65.45
682.081	65.23
682.399	65.26
682.717	64.66
683.035	66.3
683.352	66.48
683.67	66.64
683.988	67.13
684.306	66.91
684.623	66.16
684.941	65.38
685.258	65.65
685.576	65.19
685.893	64.79
686.211	65.52
686.528	65.28
686.845	64.87
687.162	65.79
687.48	65.3
687.797	65.33
688.114	65.58
688.431	65.36
688.748	65.38
689.065	65.84
689.382	65.65
689.699	65.57
690.015	65.12
690.332	65.83
690.649	65.76
690.966	64.12
691.282	64.55
691.599	65.58
691.915	65.12
692.232	65.84
692.548	66.35
692.865	67.33
693.181	66.57
693.497	66.64
693.813	66.9
694.13	66.19
694.446	66.3
694.762	66.88
695.078	65.38
695.394	65.63
695.71	65.73
696.026	65.55
696.342	65.81
696.658	67.18
696.973	66.83
697.289	67.66
697.605	67.28
697.92	68.54
698.236	68.84
698.551	68.61
698.867	70.71
699.182	69.59
699.498	68.3
699.813	68.7
700.128	67.36
700.444	68.39
700.759	66.56
701.074	68.18
701.389	67.36
701.704	66.96
702.019	67.13
702.334	67.35
702.649	67.24
702.964	67.1
703.279	66.6
703.594	66.3
703.908	65.06
704.223	64.7
704.538	63.41
704.852	63.35
705.167	63.04
705.481	62.86
705.796	62.71
706.11	62.27
706.425	63.64
706.739	62.86
707.053	64.54
707.368	64.79
707.682	64.48
707.996	65.92
708.31	65.17
708.624	66.27
708.938	64.94
709.252	64.82
709.566	64.94
709.88	64.84
710.193	64.49
710.507	64.69
710.821	66.28
711.135	66.86
711.448	66.67
711.762	68.02
712.075	68.2
712.389	68.78
712.702	69.04
713.015	69.06
713.329	68.61
713.642	69.42
713.955	70.16
714.269	70.38
714.582	70.95
714.895	69.25
715.208	70.02
715.521	69.47
715.834	67.55
716.147	69.39
716.459	68.29
716.772	69.65
717.085	71
717.398	70.06
717.71	69.23
718.023	68.06
718.336	67.47
718.648	66.69
718.961	66.52
719.273	68.59
719.585	67.71
719.898	67.65
720.21	65.63
720.522	64.92
720.834	65.7
721.147	67.4
721.459	65.05
721.771	63.18
722.083	60.83
722.395	61.12
722.707	61.15
723.019	61.02
723.33	62.49
723.642	64.44
723.954	62.04
724.265	62.68
724.577	63.29
724.889	61.02
725.2	61.96
725.512	62.96
725.823	64.04
726.135	64.03
726.446	63.33
726.757	62.8
727.068	61.36
727.38	63.35
727.691	63.92
728.002	65.36
728.313	66.19
728.624	65.87
728.935	64.99
729.246	65.63
729.557	65.68
729.867	67.27
730.178	67.05
730.489	67.44
730.8	68.38
731.11	67.84
731.421	67.08
731.731	67.66
732.042	67.03
732.352	66.8
732.663	68.64
732.973	69.24
733.283	69.44
733.594	69.26
733.904	70.84
734.214	71.72
734.524	73.21
734.834	73.72
735.144	73.26
735.454	72.52
735.764	71.66
736.074	70.83
736.384	70.32
736.694	70.39
737.003	70.29
737.313	71.53
737.623	69.48
737.932	69.43
738.242	70.08
738.551	69.92
738.861	68.16
739.17	67.92
739.479	67.78
739.789	70.17
740.098	70.08
740.407	68.75
740.716	70.23
741.025	70.18
741.334	71.48
741.643	70.05
741.952	70.08
742.261	69.04
742.57	68.29
742.879	67.22
743.188	66.32
743.497	67.18
743.805	70.3
744.114	71.29
744.422	72.56
744.731	73.77
745.04	72.84
745.348	76.11
745.656	76.74
745.965	77.15
746.273	73.39
746.581	78.07
746.889	79.16
747.198	79.89
747.506	78.77
747.814	77.85
748.122	78.98
748.43	76.19
748.738	78.08
749.046	78.43
749.353	77.11
749.661	75.5
749.969	75.65
750.277	78.6
750.584	81.11
750.892	83.4
751.199	87.77
751.507	83.79
751.814	83.46
752.122	81.27
752.429	78.87
752.736	78.66
753.044	75.49
753.351	74.53
753.658	71.11
753.965	72.72
754.272	71.93
754.579	69.57
754.886	67.88
755.193	65.49
755.5	65.07
755.807	65.4
756.114	64.58
756.42	61.84
756.727	60.99
757.034	61.91
757.34	62.44
757.647	60.82
757.953	59.33
758.26	55.63
758.566	55.52
758.872	50.1
759.179	49.45
759.485	46.29
759.791	46.55
760.097	46.41
760.403	45.17
760.709	48.82
761.015	49.44
761.321	51.78
761.627	50.91
761.933	47.25
762.239	48.12
762.545	50.6
762.851	54.2
763.156	54.88
763.462	55.02
763.767	57.56
764.073	59.14
764.378	59.75
764.684	58.33
764.989	60.63
765.295	63.5
765.6	61.99
765.905	63.94
766.21	61.31
766.515	66.8
766.821	69.48
767.126	75.07
767.431	78.31
767.736	85.69
768.041	89.01
768.345	85.86
768.65	84.43
768.955	82.5
769.26	81.84
769.564	87.59
769.869	90.14
770.174	87.81
770.478	82.44
770.783	83.24
771.087	83.22
771.391	80.07
771.696	83
772	87.1
772.304	94.25
772.608	93.33
772.913	101
773.217	108.73
773.521	105.16
773.825	109.28
774.129	102.4
774.433	100.9
774.736	103.19
775.04	102.87
775.344	92.02
775.648	93.54
775.951	96.59
776.255	110.01
776.559	117.76
776.862	121.54
777.166	118.43
777.469	114.91
777.772	117.9
778.076	127.64
778.379	125.72
778.682	118.22
778.985	127.68
779.289	124.1
779.592	123.77
779.895	116.52
780.198	123.52
780.501	104.59
780.804	105.41
781.106	107.05
781.409	111.1
781.712	123.91
782.015	132.35
782.317	121.75
782.62	126.68
782.923	134.37
783.225	127.14
783.527	122.76
783.83	103.95
784.132	115.88
784.435	114.63
784.737	119.27
785.039	126.48
785.341	127.54
785.643	126.2
785.945	111.58
786.248	120.51
786.55	110.78
786.851	98.86
787.153	88
787.455	93.85
787.757	80.44
788.059	86.79
788.36	82.56
788.662	83.32
788.964	78.05
789.265	72.93
789.567	73.12
789.868	73.73
790.17	65.28
790.471	63.48
790.772	62.87
791.074	60.72
791.375	61.86
791.676	48.86
791.977	41.48
792.278	33.29
792.579	35.96
792.88	41.64
793.181	46.2
793.482	51.28
793.783	49.91
794.083	43.96
794.384	47.46
794.685	48.55
794.986	36.39
795.286	38.01
795.587	37.99
795.887	32.38
796.188	39.72
796.488	55.95
796.788	48.75
797.089	46.55
797.389	42.47
797.689	42.8
797.989	47.36
798.289	40.01
798.589	49.15
798.889	50.44
799.189	54.87
799.489	81.27
799.789	96.21
800.089	74.89
800.389	56.56
800.688	46.19
800.988	52.05
801.288	59.93
801.587	69.85
801.887	90.29
802.186	90.27
802.486	88.35
802.785	98.38
803.085	108.38
803.384	119.81
803.683	93.06
803.982	80.36
804.281	103.56
804.58	107.58
804.879	164.73
805.178	169.56
805.477	144.1
805.776	161.72
806.075	155.65
806.374	160.1
806.673	170.81
806.971	147.5
807.27	157.36
807.569	175.01
807.867	184.29
808.166	176.73
808.464	154.27
808.763	143.2
809.061	171.8
809.359	154.56
809.658	178.84
809.956	276.66
810.254	259.55
810.552	213.32
810.85	261.62
811.148	299.53
811.446	236.54
811.744	223.07
812.042	212.37
812.34	209.75
812.638	215.35
812.935	230.29
813.233	230.79
813.531	210.06
813.828	207.22
814.126	148.64
814.423	171.24
814.721	161.64
815.018	153.33
815.316	138.99
815.613	155.45
815.91	154.26
816.207	169.68
816.504	140.24
816.802	124.43
817.099	116.27
817.396	95.63
817.693	101.71
817.99	109.59
818.286	93.28
818.583	82.71
818.88	93.95
819.177	81.22
819.473	80.41
819.77	77.95
820.067	65.05
820.363	53.85
820.66	55.8
820.956	74.65
821.252	76.49
821.549	91.16
821.845	78.09
822.141	84.74
822.437	95.26
822.734	133.04
823.03	141.17
823.326	144.36
823.622	153.42
823.918	170.55
824.213	191.8
824.509	219.67
824.805	235.41
825.101	222.97
825.397	199.41
825.692	166.11
825.988	227.1
826.283	218.44
826.579	390.84
826.874	246.59
827.17	240.49
827.465	360.03
827.76	2386.93
828.056	-317.24
828.351	-444.15
828.646	-608.35
828.941	-756.85
829.236	-1114.83
829.531	-549.41
829.826	2767.12
830.121	194.83
830.416	301.09
830.711	824.28
831.006	-856.68
831.3	-768.37
831.595	-201.37
831.89	-86.14
832.184	-18.15
832.479	51.8
832.773	64.6
833.068	65.43
833.362	-273.22
833.656	-292.64
833.951	-777.01
834.245	-238.36
834.539	142.06
834.833	196.63
835.127	182.66
835.421	141.41
835.715	150.28
836.009	163.68
836.303	310.49
836.597	584.47
836.891	367.01
837.185	288.66
837.478	337.07
837.772	247.86
838.066	163.53
838.359	106.55
838.653	109.85
838.946	128.39
839.24	112.98
839.533	102.37
839.826	98.62
840.119	108.94
840.413	108.02
840.706	85.81
840.999	75.41
841.292	67.09
841.585	42.67
841.878	56.85
842.171	-8.85
842.464	-39.62
842.757	-21.05
843.049	-51.52
843.342	-27.34
843.635	6.35
843.927	15.27
844.22	17.04
844.513	29.57
844.805	33.56
845.098	28.54
845.39	27.95
845.682	19.59
845.975	10.18
846.267	35.04
846.559	59.04
846.851	59.57
847.143	54.38
847.435	-2.05
847.727	26.73
848.019	-34.95
848.311	159.74
848.603	487.56
848.895	-1461.82
849.186	146.3
849.478	116.22
849.77	185.15
850.061	62.62
850.353	23.85
850.645	14.15
850.936	-28.12
851.227	-46.35
851.519	24.52
851.81	1.06
852.101	179.76
852.393	429.77
852.684	21200
852.975	-660.36
853.266	-209.25
853.557	609.05
853.848	-136.74
854.139	3.24
854.43	40.95
854.72	77.45
855.011	230.24
855.302	147.49
855.593	105.52
855.883	8.89
856.174	44.3
856.464	67.7
856.755	76.35
857.045	61.31
857.336	92.87
857.626	114.65
857.916	131.07
858.206	98.35
858.497	105.55
858.787	80.94
859.077	97.57
859.367	95.07
859.657	113.34
859.947	152.89
860.237	156.47
860.527	189.05
860.816	166.91
861.106	147.95
861.396	161.63
861.685	108.72
861.975	108.38
862.265	113.74
862.554	92.46
862.844	112.43
863.133	146.93
863.422	155.59
863.712	209.96
864.001	599.36
864.29	-1117.65
864.579	-558.53
864.868	-394.33
865.157	-4992.59
865.446	2400
865.735	-396.62
866.024	2800
866.313	-646.54
866.602	-273.68
866.891	-157.51
867.179	-46.08
867.468	-68.14
