Data from T1_Reflection__70__17-47-46-629.txt Node

Date: Wed Jun 02 17:47:46 CEST 2021
User: mabdelazizm
Spectrometer: FLMS18565
Trigger mode: 0
Integration Time (sec): 2.000000E0
Scans to average: 1
Electric dark correction enabled: true
Nonlinearity correction enabled: false
Boxcar width: 12
XAxis mode: Wavelengths
Number of Pixels in Spectrum: 2048
>>>>>Begin Spectral Data<<<<<
179.071	45.65
179.452	79.34
179.833	-969.7
180.214	171.43
180.595	-1987.88
180.977	203.8
181.358	124.88
181.739	181.33
182.12	110.13
182.501	116.94
182.882	62.27
183.262	39.26
183.643	182.51
184.024	68.46
184.405	49.56
184.786	46.06
185.166	41.19
185.547	30.14
185.927	28.57
186.308	29.21
186.689	22.99
187.069	24.95
187.449	25.21
187.83	26.02
188.21	18.78
188.59	18.31
188.971	17.68
189.351	11.83
189.731	15.11
190.111	17.17
190.491	17.3
190.871	12.04
191.251	12.8
191.631	12.98
192.011	12.9
192.391	14.37
192.771	15.19
193.151	16.66
193.531	13.15
193.91	14.24
194.29	13.92
194.67	12.62
195.049	13.7
195.429	12.27
195.808	13
196.188	13.77
196.567	12.89
196.946	12.34
197.326	12.68
197.705	12.65
198.084	12.58
198.464	12.19
198.843	15.74
199.222	17.23
199.601	16.05
199.98	15.26
200.359	15.44
200.738	15.96
201.117	15.03
201.496	14.41
201.875	14
202.254	12.13
202.632	10.46
203.011	10.97
203.39	9.16
203.768	8.6
204.147	9.25
204.525	8.51
204.904	8.34
205.282	8.07
205.661	8.23
206.039	9
206.418	8.94
206.796	9.07
207.174	9.48
207.552	9.88
207.931	9.57
208.309	7.62
208.687	6.37
209.065	6.3
209.443	6.63
209.821	6.46
210.199	6.01
210.577	5.88
210.954	5.7
211.332	4.82
211.71	5.25
212.088	5.97
212.465	5.96
212.843	5.96
213.221	6.4
213.598	5.6
213.976	5.3
214.353	4.88
214.731	3.99
215.108	3.61
215.485	3.04
215.863	2.69
216.24	1.94
216.617	2.54
216.994	2.07
217.371	2.37
217.749	2.44
218.126	2.38
218.503	2.46
218.88	2.37
219.256	2.6
219.633	3.15
220.01	3.61
220.387	3.76
220.764	4.13
221.14	4.1
221.517	3.77
221.894	3.52
222.27	3.72
222.647	3.62
223.023	3.68
223.4	3.73
223.776	3.83
224.153	4.26
224.529	4.24
224.905	4.26
225.282	4.21
225.658	4.26
226.034	3.57
226.41	3.74
226.786	3.55
227.162	3.64
227.538	3.48
227.914	3.37
228.29	3.19
228.666	3.01
229.042	2.6
229.418	2.28
229.793	2.32
230.169	1.91
230.545	1.73
230.92	1.72
231.296	1.63
231.672	1.61
232.047	1.43
232.422	1.41
232.798	1.35
233.173	1.25
233.549	1.21
233.924	1.19
234.299	1.11
234.674	1.17
235.05	0.99
235.425	1.11
235.8	1.04
236.175	1.11
236.55	0.98
236.925	0.96
237.3	0.96
237.675	1.05
238.049	1.15
238.424	1.29
238.799	1.34
239.174	1.31
239.548	1.47
239.923	1.36
240.297	1.38
240.672	1.38
241.046	1.34
241.421	1.35
241.795	1.2
242.17	1.16
242.544	1.2
242.918	1.05
243.293	0.94
243.667	0.93
244.041	0.95
244.415	0.94
244.789	1
245.163	0.93
245.537	0.88
245.911	0.84
246.285	0.83
246.659	0.79
247.033	0.75
247.406	0.63
247.78	0.52
248.154	0.5
248.528	0.54
248.901	0.46
249.275	0.52
249.648	0.53
250.022	0.56
250.395	0.63
250.769	0.6
251.142	0.66
251.515	0.75
251.888	0.74
252.262	0.82
252.635	0.86
253.008	0.85
253.381	0.76
253.754	0.86
254.127	0.73
254.5	0.7
254.873	0.68
255.246	0.77
255.619	0.75
255.992	0.73
256.364	0.73
256.737	0.74
257.11	0.76
257.483	0.78
257.855	0.73
258.228	0.81
258.6	0.85
258.973	0.87
259.345	0.84
259.718	0.77
260.09	0.74
260.462	0.81
260.834	0.75
261.207	0.73
261.579	0.75
261.951	0.7
262.323	0.77
262.695	0.76
263.067	0.62
263.439	0.69
263.811	0.77
264.183	0.8
264.555	0.79
264.927	0.84
265.298	0.86
265.67	0.86
266.042	0.83
266.413	0.75
266.785	0.71
267.156	0.73
267.528	0.65
267.899	0.63
268.271	0.55
268.642	0.53
269.013	0.57
269.385	0.65
269.756	0.58
270.127	0.61
270.498	0.65
270.87	0.64
271.241	0.67
271.612	0.63
271.983	0.68
272.354	0.74
272.724	0.74
273.095	0.72
273.466	0.72
273.837	0.7
274.208	0.71
274.578	0.69
274.949	0.71
275.32	0.75
275.69	0.84
276.061	0.91
276.431	0.93
276.802	0.96
277.172	1
277.542	1
277.913	0.99
278.283	0.95
278.653	0.9
279.023	0.91
279.394	0.87
279.764	0.8
280.134	0.75
280.504	0.78
280.874	0.71
281.244	0.58
281.614	0.52
281.983	0.45
282.353	0.54
282.723	0.53
283.093	0.5
283.462	0.42
283.832	0.44
284.202	0.42
284.571	0.39
284.941	0.42
285.31	0.39
285.68	0.31
286.049	0.29
286.418	0.24
286.788	0.44
287.157	0.43
287.526	0.43
287.895	0.41
288.264	0.45
288.633	0.43
289.002	0.45
289.371	0.42
289.74	0.35
290.109	0.35
290.478	0.42
290.847	0.49
291.216	0.52
291.585	0.35
291.953	0.32
292.322	0.24
292.691	0.27
293.059	0.31
293.428	0.31
293.796	0.27
294.165	0.23
294.533	0.23
294.901	0.28
295.27	0.28
295.638	0.36
296.006	0.14
296.374	0.17
296.743	0.19
297.111	0.2
297.479	0.17
297.847	0.18
298.215	0.15
298.583	0.11
298.95	0.09
299.318	0.13
299.686	0.1
300.054	0.11
300.422	0.13
300.789	0.15
301.157	0.12
301.525	0.22
301.892	0.21
302.26	0.12
302.627	0.14
302.994	0.17
303.362	0.16
303.729	0.1
304.097	0.1
304.464	0.13
304.831	0.06
305.198	0.09
305.565	0.08
305.932	0.05
306.299	0.08
306.666	0.08
307.033	0.1
307.4	0.15
307.767	0.17
308.134	0.21
308.501	0.27
308.867	0.26
309.234	0.22
309.601	0.23
309.967	0.25
310.334	0.28
310.701	0.3
311.067	0.3
311.433	0.31
311.8	0.34
312.166	0.36
312.533	0.4
312.899	0.44
313.265	0.47
313.631	0.48
313.997	0.46
314.363	0.42
314.729	0.38
315.096	0.36
315.461	0.34
315.827	0.29
316.193	0.31
316.559	0.25
316.925	0.32
317.291	0.32
317.656	0.26
318.022	0.27
318.388	0.33
318.753	0.33
319.119	0.39
319.484	0.45
319.85	0.45
320.215	0.5
320.581	0.5
320.946	0.46
321.311	0.47
321.676	0.45
322.042	0.42
322.407	0.36
322.772	0.37
323.137	0.37
323.502	0.4
323.867	0.36
324.232	0.35
324.597	0.26
324.962	0.25
325.327	0.22
325.691	0.22
326.056	0.15
326.421	0.16
326.785	0.2
327.15	0.32
327.514	0.32
327.879	0.35
328.243	0.29
328.608	0.13
328.972	0.07
329.337	0.02
329.701	0.05
330.065	-0.01
330.429	0.03
330.794	-0
331.158	0.02
331.522	0.04
331.886	0.06
332.25	0
332.614	-0.06
332.978	-0.04
333.342	-0.09
333.705	-0.01
334.069	0.07
334.433	0.16
334.797	0.2
335.16	0.2
335.524	0.14
335.887	0.06
336.251	-0.08
336.614	-0.1
336.978	-0.15
337.341	-0.21
337.705	-0.14
338.068	-0.07
338.431	-0.05
338.794	-0.13
339.158	-0.11
339.521	-0.13
339.884	-0.16
340.247	-0.16
340.61	-0.26
340.973	-0.39
341.336	-0.37
341.699	-0.38
342.062	-0.34
342.424	-0.28
342.787	-0.29
343.15	-0.39
343.512	-0.57
343.875	-0.61
344.238	-0.53
344.6	-0.5
344.963	-0.48
345.325	-0.47
345.688	-0.5
346.05	-0.52
346.412	-0.44
346.775	-0.41
347.137	-0.51
347.499	-0.54
347.861	-0.47
348.223	-0.52
348.585	-0.53
348.947	-0.54
349.309	-0.52
349.671	-0.4
350.033	-0.22
350.395	-0.16
350.757	-0.12
351.118	-0.14
351.48	-0.14
351.842	-0.17
352.203	-0.12
352.565	-0.01
352.927	0.01
353.288	-0.05
353.65	-0.01
354.011	0.05
354.372	0.05
354.734	0.07
355.095	0.13
355.456	0.11
355.817	0.13
356.179	0.18
356.54	0.2
356.901	0.24
357.262	0.29
357.623	0.27
357.984	0.34
358.345	0.36
358.705	0.35
359.066	0.25
359.427	0.17
359.788	0.13
360.148	0.22
360.509	0.25
360.87	0.33
361.23	0.41
361.591	0.4
361.951	0.43
362.312	0.44
362.672	0.44
363.032	0.36
363.393	0.43
363.753	0.48
364.113	0.45
364.473	0.5
364.833	0.47
365.193	0.38
365.553	0.42
365.913	0.36
366.273	0.39
366.633	0.43
366.993	0.29
367.353	0.24
367.713	0.16
368.072	0.1
368.432	0.14
368.792	0.16
369.151	0.1
369.511	0.07
369.87	0.06
370.23	-0.01
370.589	0.01
370.949	-0.01
371.308	-0.02
371.667	-0.07
372.027	-0.03
372.386	-0.05
372.745	-0.17
373.104	-0.17
373.463	-0.15
373.822	-0.19
374.181	-0.12
374.54	-0.14
374.899	-0.15
375.258	-0.23
375.617	-0.27
375.975	-0.17
376.334	-0.21
376.693	-0.16
377.052	-0.05
377.41	-0.04
377.769	-0.01
378.127	-0.06
378.486	-0.08
378.844	-0.04
379.202	-0.1
379.561	-0.19
379.919	-0.16
380.277	-0.26
380.636	-0.19
380.994	-0.17
381.352	-0.18
381.71	-0.09
382.068	-0.02
382.426	-0.04
382.784	0.06
383.142	0.04
383.5	0.11
383.857	0.22
384.215	0.31
384.573	0.3
384.931	0.28
385.288	0.26
385.646	0.11
386.003	0.04
386.361	0.08
386.718	0.09
387.076	0.16
387.433	0.15
387.791	0.1
388.148	0.18
388.505	0.19
388.862	0.23
389.22	0.36
389.577	0.29
389.934	0.39
390.291	0.53
390.648	0.57
391.005	0.51
391.362	0.46
391.718	0.47
392.075	0.45
392.432	0.34
392.789	0.29
393.145	0.33
393.502	0.34
393.859	0.47
394.215	0.46
394.572	0.6
394.928	0.58
395.285	0.58
395.641	0.58
395.997	0.54
396.354	0.65
396.71	0.69
397.066	0.72
397.422	0.85
397.778	0.9
398.134	0.81
398.491	0.93
398.846	0.85
399.202	0.75
399.558	0.68
399.914	0.71
400.27	0.83
400.626	0.86
400.981	0.92
401.337	1.03
401.693	1.09
402.048	1.1
402.404	1.2
402.759	1.15
403.115	1.29
403.47	1.4
403.826	1.58
404.181	1.54
404.536	1.6
404.892	1.77
405.247	1.82
405.602	1.92
405.957	1.93
406.312	2.06
406.667	1.97
407.022	2.18
407.377	2.23
407.732	2.35
408.087	2.43
408.442	2.57
408.796	2.59
409.151	2.61
409.506	2.59
409.86	2.63
410.215	2.62
410.57	2.76
410.924	2.82
411.279	2.8
411.633	2.97
411.987	2.97
412.342	2.92
412.696	2.94
413.05	3.14
413.404	3.2
413.758	3.4
414.113	3.53
414.467	3.65
414.821	3.78
415.175	3.78
415.529	3.94
415.882	3.94
416.236	4.06
416.59	4.09
416.944	4.22
417.298	4.36
417.651	4.59
418.005	4.64
418.358	4.91
418.712	5.09
419.065	5.19
419.419	5.31
419.772	5.44
420.126	5.67
420.479	5.79
420.832	6.06
421.185	6.27
421.539	6.39
421.892	6.41
422.245	6.6
422.598	6.56
422.951	6.66
423.304	6.81
423.657	7.04
424.01	7.2
424.363	7.46
424.715	7.72
425.068	7.91
425.421	8.06
425.773	8.18
426.126	8.44
426.479	8.61
426.831	8.94
427.184	8.99
427.536	9.21
427.889	9.43
428.241	9.49
428.593	9.7
428.945	9.81
429.298	9.87
429.65	9.92
430.002	10.15
430.354	10.34
430.706	10.57
431.058	10.75
431.41	11
431.762	11.13
432.114	11.23
432.466	11.35
432.817	11.41
433.169	11.47
433.521	11.56
433.872	11.67
434.224	11.85
434.576	12.03
434.927	11.89
435.279	12
435.63	11.86
435.981	11.88
436.333	11.93
436.684	11.96
437.035	11.94
437.387	11.85
437.738	11.81
438.089	11.88
438.44	12.06
438.791	12.02
439.142	12.13
439.493	12.2
439.844	12.18
440.195	12.06
440.545	12.1
440.896	12.07
441.247	12.1
441.598	12.12
441.948	12.05
442.299	12.04
442.649	12.02
443	11.94
443.35	11.77
443.701	11.76
444.051	11.76
444.401	11.92
444.752	11.84
445.102	11.89
445.452	11.92
445.802	12
446.152	12.14
446.502	12.29
446.852	12.33
447.202	12.29
447.552	12.43
447.902	12.36
448.252	12.3
448.602	12.49
448.952	12.57
449.301	12.58
449.651	12.62
450.001	12.69
450.35	12.81
450.7	12.92
451.049	12.89
451.399	13.1
451.748	13.21
452.097	13.42
452.447	13.63
452.796	13.66
453.145	13.67
453.494	13.89
453.843	13.93
454.193	14.07
454.542	14.21
454.891	14.36
455.239	14.46
455.588	14.5
455.937	14.62
456.286	14.74
456.635	14.91
456.984	15.06
457.332	15.12
457.681	15.38
458.03	15.57
458.378	15.74
458.727	15.85
459.075	16.11
459.423	16.55
459.772	16.87
460.12	17
460.468	17.23
460.817	17.35
461.165	17.45
461.513	17.45
461.861	17.72
462.209	17.92
462.557	17.92
462.905	18.02
463.253	18.09
463.601	18.09
463.949	18.15
464.297	18.32
464.644	18.43
464.992	18.45
465.34	18.55
465.687	18.59
466.035	18.64
466.383	18.51
466.73	18.43
467.078	18.35
467.425	18.23
467.772	18.09
468.12	17.81
468.467	17.72
468.814	17.55
469.161	17.34
469.508	17.15
469.856	17.1
470.203	17.02
470.55	16.77
470.897	16.59
471.243	16.49
471.59	16.37
471.937	16.35
472.284	16.32
472.631	16.3
472.977	16.23
473.324	16.15
473.671	16.02
474.017	15.68
474.364	15.57
474.71	15.31
475.057	15.3
475.403	15.2
475.749	15.12
476.096	15.05
476.442	14.98
476.788	14.93
477.134	14.88
477.48	14.83
477.826	14.91
478.172	15.02
478.518	15
478.864	15.07
479.21	15.22
479.556	15.24
479.902	15.26
480.248	15.26
480.593	15.31
480.939	15.32
481.285	15.41
481.63	15.44
481.976	15.58
482.321	15.78
482.667	16.11
483.012	16.3
483.357	16.54
483.703	16.63
484.048	16.98
484.393	17.31
484.738	17.57
485.084	17.83
485.429	18.15
485.774	18.52
486.119	18.82
486.464	19.18
486.808	19.49
487.153	19.87
487.498	20.35
487.843	20.79
488.188	21.27
488.532	21.84
488.877	22.56
489.222	23.09
489.566	23.7
489.911	24.28
490.255	24.95
490.6	25.54
490.944	26
491.288	26.51
491.633	27.12
491.977	27.75
492.321	28.57
492.665	29.1
493.009	29.71
493.353	30.37
493.697	31.09
494.041	31.85
494.385	32.5
494.729	33.26
495.073	33.96
495.417	34.8
495.76	35.46
496.104	36.1
496.448	36.66
496.791	37.41
497.135	38.14
497.479	38.73
497.822	39.52
498.165	40.18
498.509	40.94
498.852	41.7
499.196	42.36
499.539	43.24
499.882	44.05
500.225	44.95
500.568	45.62
500.911	46.19
501.254	46.89
501.597	47.54
501.94	48.18
502.283	48.72
502.626	49.27
502.969	49.93
503.312	50.45
503.654	51.06
503.997	51.57
504.34	52.24
504.682	52.87
505.025	53.5
505.367	53.99
505.71	54.37
506.052	54.98
506.395	55.38
506.737	55.88
507.079	56.47
507.421	56.9
507.764	57.31
508.106	57.69
508.448	58.08
508.79	58.28
509.132	58.59
509.474	59.02
509.816	59.4
510.158	59.73
510.499	60.19
510.841	60.61
511.183	60.85
511.525	61.08
511.866	61.54
512.208	61.91
512.549	62.22
512.891	62.47
513.232	62.73
513.574	63.01
513.915	63.29
514.256	63.85
514.598	64.07
514.939	64.49
515.28	64.77
515.621	64.85
515.962	64.99
516.303	65.37
516.644	65.5
516.985	65.8
517.326	66.07
517.667	66.22
518.008	66.16
518.349	66.37
518.69	66.68
519.03	66.73
519.371	66.77
519.712	66.97
520.052	67.09
520.393	67.15
520.733	67.29
521.074	67.44
521.414	67.65
521.754	67.76
522.095	67.92
522.435	68.15
522.775	68.07
523.115	68.11
523.455	68.02
523.795	68.18
524.135	68.18
524.475	68.37
524.815	68.47
525.155	68.67
525.495	68.65
525.835	68.58
526.175	68.89
526.514	69.19
526.854	69.26
527.194	69.24
527.533	69.45
527.873	69.79
528.212	70.06
528.552	70.15
528.891	70.19
529.23	70.22
529.57	70.17
529.909	70.19
530.248	70.21
530.587	70.25
530.927	70.27
531.266	70.3
531.605	70.31
531.944	70.5
532.283	70.59
532.621	70.62
532.96	70.78
533.299	70.97
533.638	71.31
533.977	71.55
534.315	71.67
534.654	71.59
534.992	71.74
535.331	71.62
535.67	71.61
536.008	71.62
536.346	71.52
536.685	71.38
537.023	71.38
537.361	71.59
537.7	71.65
538.038	71.7
538.376	71.66
538.714	71.78
539.052	71.92
539.39	72.1
539.728	72.22
540.066	72.47
540.404	72.52
540.741	72.44
541.079	72.52
541.417	72.31
541.755	72.1
542.092	71.83
542.43	71.6
542.767	71.51
543.105	71.6
543.442	71.44
543.78	71.88
544.117	71.94
544.454	71.73
544.792	71.84
545.129	71.96
545.466	72.19
545.803	72.16
546.14	72.05
546.477	72.13
546.814	72.27
547.151	72.21
547.488	72.21
547.825	71.92
548.162	71.94
548.499	71.85
548.835	71.86
549.172	71.95
549.509	72.29
549.845	72.36
550.182	72.37
550.518	72.45
550.855	72.58
551.191	72.66
551.528	72.67
551.864	72.71
552.2	72.44
552.537	72.45
552.873	72.56
553.209	72.48
553.545	72.38
553.881	72.3
554.217	72.26
554.553	72.56
554.889	72.63
555.225	72.57
555.561	72.73
555.896	72.66
556.232	72.7
556.568	72.64
556.903	72.75
557.239	72.75
557.575	72.73
557.91	72.66
558.245	72.7
558.581	72.96
558.916	72.92
559.252	72.93
559.587	73
559.922	72.89
560.257	73.06
560.592	73.13
560.928	73.34
561.263	73.42
561.598	73.59
561.933	73.68
562.267	73.68
562.602	73.77
562.937	73.64
563.272	73.8
563.607	74
563.941	73.95
564.276	73.94
564.611	74.29
564.945	74.19
565.28	74.11
565.614	73.78
565.949	73.75
566.283	73.8
566.617	73.98
566.951	73.99
567.286	74.04
567.62	74.06
567.954	74.4
568.288	74.51
568.622	74.27
568.956	74.21
569.29	74.2
569.624	74.41
569.958	74.27
570.292	74.23
570.626	74.19
570.959	74.21
571.293	74.55
571.627	74.56
571.96	74.43
572.294	74.39
572.627	74.36
572.961	74.16
573.294	74.28
573.627	74.28
573.961	74.51
574.294	74.61
574.627	74.71
574.961	74.72
575.294	74.7
575.627	74.56
575.96	74.56
576.293	74.34
576.626	74.36
576.959	74.43
577.292	74.47
577.624	74.39
577.957	74.27
578.29	74.52
578.623	74.65
578.955	74.76
579.288	74.77
579.62	74.58
579.953	74.53
580.285	74.61
580.618	74.67
580.95	74.93
581.282	75.03
581.615	75.13
581.947	75.15
582.279	75.07
582.611	75.07
582.943	74.87
583.275	74.77
583.607	74.65
583.939	74.71
584.271	74.68
584.603	74.7
584.935	74.75
585.267	74.72
585.598	74.69
585.93	74.95
586.262	75.08
586.593	74.79
586.925	74.61
587.256	74.55
587.588	74.35
587.919	74.17
588.25	74.08
588.582	73.95
588.913	74.08
589.244	73.79
589.575	73.82
589.907	73.82
590.238	73.77
590.569	73.96
590.9	74.04
591.231	74.14
591.562	74.3
591.892	74.49
592.223	74.65
592.554	74.74
592.885	74.87
593.215	74.85
593.546	75.07
593.877	75.02
594.207	74.85
594.538	74.73
594.868	74.8
595.198	74.94
595.529	75.02
595.859	75.24
596.189	75.49
596.52	75.67
596.85	75.83
597.18	75.79
597.51	75.87
597.84	75.72
598.17	75.54
598.5	75.72
598.83	75.74
599.16	75.74
599.489	75.69
599.819	75.66
600.149	75.56
600.479	75.43
600.808	75.33
601.138	75.12
601.467	74.98
601.797	75
602.126	75.08
602.456	75.16
602.785	75.24
603.114	75.22
603.443	75.09
603.773	75.23
604.102	75.16
604.431	74.99
604.76	74.83
605.089	74.86
605.418	74.66
605.747	74.54
606.076	74.53
606.405	74.65
606.733	74.61
607.062	74.3
607.391	74.12
607.72	74.16
608.048	74.27
608.377	74.38
608.705	74.65
609.034	74.84
609.362	75.08
609.69	75.17
610.019	75.09
610.347	75.26
610.675	75.13
611.004	75.08
611.332	75.33
611.66	75.46
611.988	75.22
612.316	75.17
612.644	75.07
612.972	75.03
613.3	74.72
613.627	74.88
613.955	74.84
614.283	74.93
614.611	74.97
614.938	75.1
615.266	75.56
615.593	75.75
615.921	75.7
616.248	75.57
616.576	75.49
616.903	75.4
617.23	75.13
617.558	75.29
617.885	75.36
618.212	75.17
618.539	74.82
618.866	75.15
619.193	75.24
619.52	75.2
619.847	75.19
620.174	74.89
620.501	75.17
620.828	75.18
621.155	75.47
621.481	75.62
621.808	75.58
622.135	75.9
622.461	76.31
622.788	76.6
623.114	76.18
623.441	75.94
623.767	75.9
624.093	76
624.42	75.86
624.746	75.91
625.072	76.2
625.398	76.52
625.725	76.53
626.051	76.68
626.377	77.04
626.703	77.19
627.029	76.75
627.354	76.39
627.68	76.15
628.006	76.25
628.332	76.06
628.658	76.11
628.983	76.55
629.309	76.66
629.634	76.9
629.96	76.94
630.285	76.78
630.611	76.51
630.936	75.91
631.262	76.44
631.587	76.9
631.912	76.61
632.237	76.75
632.562	76.94
632.887	76.48
633.213	76.1
633.538	76.24
633.863	76.17
634.187	76.65
634.512	76.84
634.837	77.01
635.162	77.69
635.487	78.44
635.811	78.28
636.136	78.96
636.461	79.73
636.785	79.12
637.11	78.98
637.434	79.12
637.758	79.4
638.083	79.28
638.407	79.97
638.731	80.26
639.056	80.67
639.38	80.79
639.704	81.15
640.028	81.74
640.352	81.91
640.676	81.93
641	82.65
641.324	82.75
641.648	82.33
641.972	81.74
642.295	80.92
642.619	80.65
642.943	80.19
643.266	79.07
643.59	78.66
643.913	79.12
644.237	77.8
644.56	77.48
644.884	77.4
645.207	77.68
645.53	77.54
645.854	77.63
646.177	78.13
646.5	78.4
646.823	77.86
647.146	77.76
647.469	77.37
647.792	76.76
648.115	77.05
648.438	77.02
648.761	79.41
649.084	78.43
649.406	77.46
649.729	75.97
650.052	75.33
650.374	75.41
650.697	75.12
651.019	75.17
651.342	75.33
651.664	75.39
651.987	75.26
652.309	75.46
652.631	75.62
652.953	75.38
653.276	75.08
653.598	75.01
653.92	74.96
654.242	74.83
654.564	74.57
654.886	74.68
655.208	74.51
655.53	74.64
655.851	74.74
656.173	74.54
656.495	74.58
656.816	73.15
657.138	73.15
657.46	72.96
657.781	74.54
658.103	76.37
658.424	77.16
658.746	78.24
659.067	78.52
659.388	78.01
659.709	78.36
660.031	78.81
660.352	78.65
660.673	77.9
660.994	78.64
661.315	79.96
661.636	80.22
661.957	79.63
662.278	79.14
662.599	78.62
662.919	78.34
663.24	78.79
663.561	78.01
663.881	77.84
664.202	77.31
664.523	76.59
664.843	76.85
665.164	76.52
665.484	75.09
665.804	74.94
666.125	75.01
666.445	74.16
666.765	73.8
667.085	73.56
667.405	74.17
667.726	74.88
668.046	74.53
668.366	75.17
668.686	76.07
669.005	76.34
669.325	76.03
669.645	76.49
669.965	76.37
670.285	76.34
670.604	77.34
670.924	77.44
671.243	77.33
671.563	78.14
671.882	78.37
672.202	79.16
672.521	79.49
672.841	79.82
673.16	79.61
673.479	80.75
673.798	81.5
674.117	81.29
674.437	81.58
674.756	82.62
675.075	82.94
675.394	82.63
675.713	80.99
676.031	80.5
676.35	80.63
676.669	80.44
676.988	81.03
677.306	79.97
677.625	79.46
677.944	80.74
678.262	80.31
678.581	80.37
678.899	81.03
679.218	81.81
679.536	81.79
679.854	81.09
680.172	81.27
680.491	81.69
680.809	81.23
681.127	80.61
681.445	80.31
681.763	79.84
682.081	79.96
682.399	79.8
682.717	78.67
683.035	79.96
683.352	79.81
683.67	80.31
683.988	81.51
684.306	81.69
684.623	80.95
684.941	80.73
685.258	81.38
685.576	81.96
685.893	81.16
686.211	82.69
686.528	83.56
686.845	83.43
687.162	82.96
687.48	82.18
687.797	82.91
688.114	82.67
688.431	81.72
688.748	81.84
689.065	82.04
689.382	81.61
689.699	82.29
690.015	82.18
690.332	82.7
690.649	82.98
690.966	81.68
691.282	81.75
691.599	82.06
691.915	81.86
692.232	80.96
692.548	81.43
692.865	81.03
693.181	80.77
693.497	81.03
693.813	81.68
694.13	80.67
694.446	79.87
694.762	81.18
695.078	80.95
695.394	82.06
695.71	81.72
696.026	82.63
696.342	83.65
696.658	83.99
696.973	84.26
697.289	84.41
697.605	84.01
697.92	84.72
698.236	85.78
698.551	85.78
698.867	86.81
699.182	87.62
699.498	86.65
699.813	85.52
700.128	85.15
700.444	86.05
700.759	86.45
701.074	87.24
701.389	86.31
701.704	86.57
702.019	86.77
702.334	85.88
702.649	83.63
702.964	84.41
703.279	84.07
703.594	84.93
703.908	82.94
704.223	82.8
704.538	82
704.852	82.68
705.167	83.52
705.481	83.3
705.796	81.83
706.11	81.35
706.425	82.22
706.739	82.36
707.053	81.84
707.368	82.6
707.682	83.4
707.996	84.18
708.31	84.29
708.624	84.36
708.938	83.31
709.252	84.08
709.566	84.06
709.88	84.18
710.193	83.67
710.507	84.42
710.821	85.5
711.135	84.14
711.448	83.03
711.762	84.09
712.075	82.85
712.389	83.17
712.702	82.74
713.015	82.17
713.329	81.77
713.642	84.49
713.955	84.89
714.269	83.66
714.582	82.05
714.895	82.7
715.208	81.86
715.521	81.55
715.834	80.17
716.147	80.47
716.459	80.84
716.772	83.35
717.085	84.09
717.398	81.64
717.71	81.04
718.023	81.28
718.336	82.4
718.648	80.08
718.961	80.97
719.273	82.56
719.585	81.63
719.898	82.21
720.21	81.38
720.522	81.04
720.834	81.68
721.147	83.76
721.459	80.93
721.771	78.73
722.083	80.29
722.395	80.68
722.707	79.1
723.019	79.2
723.33	78.29
723.642	81.42
723.954	80.14
724.265	79.7
724.577	79.66
724.889	76.73
725.2	78.74
725.512	79.99
725.823	81.31
726.135	80.37
726.446	80.32
726.757	80.21
727.068	80.3
727.38	80.93
727.691	81.84
728.002	83.53
728.313	84.16
728.624	83.97
728.935	82.7
729.246	82.67
729.557	83.24
729.867	82.83
730.178	83.17
730.489	84.41
730.8	85.74
731.11	85.07
731.421	84.07
731.731	83.85
732.042	82.7
732.352	81.35
732.663	83.12
732.973	82.62
733.283	81.04
733.594	79.08
733.904	79.97
734.214	80.84
734.524	81.38
734.834	80.63
735.144	81.42
735.454	80.62
735.764	79.73
736.074	78.99
736.384	78.18
736.694	78.18
737.003	78.03
737.313	79.52
737.623	78.42
737.932	77.87
738.242	78.63
738.551	78.31
738.861	79.36
739.17	78.49
739.479	78.18
739.789	78.4
740.098	80.96
740.407	80
740.716	80.6
741.025	82.3
741.334	84.02
741.643	81.72
741.952	81.96
742.261	81.41
742.57	80.38
742.879	80.63
743.188	81.19
743.497	81.27
743.805	81.84
744.114	85.23
744.422	84.08
744.731	83.58
745.04	82.12
745.348	84.32
745.656	85.44
745.965	86.57
746.273	83.08
746.581	86.91
746.889	86.11
747.198	89.78
747.506	91.37
747.814	87.1
748.122	85.27
748.43	83.52
748.738	86.14
749.046	86.94
749.353	88.02
749.661	87.92
749.969	88.29
750.277	86.96
750.584	84.33
750.892	85.08
751.199	88.87
751.507	88.41
751.814	86.53
752.122	85.48
752.429	84.91
752.736	85.39
753.044	85.33
753.351	84.44
753.658	79.73
753.965	80.77
754.272	78.53
754.579	79.48
754.886	77.77
755.193	77.5
755.5	80.29
755.807	81.88
756.114	81.33
756.42	79.36
756.727	80.68
757.034	80.53
757.34	81.93
757.647	79.38
757.953	80.3
758.26	80.01
758.566	79.38
758.872	75.72
759.179	74.81
759.485	74.94
759.791	75.52
760.097	76.57
760.403	75.39
760.709	74.04
761.015	75.7
761.321	79.49
761.627	81.75
761.933	81.07
762.239	81.68
762.545	81.08
762.851	83.22
763.156	81.16
763.462	83.88
763.767	86.35
764.073	89.75
764.378	86.6
764.684	87.8
764.989	84.95
765.295	89.65
765.6	88.63
765.905	91.97
766.21	89.75
766.515	94.41
766.821	97.98
767.126	98.97
767.431	101.49
767.736	107.57
768.041	108.52
768.345	107.58
768.65	109.27
768.955	107.13
769.26	107.12
769.564	108.13
769.869	109.57
770.174	111.02
770.478	110.3
770.783	107.08
771.087	107.54
771.391	108.03
771.696	109.57
772	116.29
772.304	119.92
772.608	126.06
772.913	132.97
773.217	138.71
773.521	135.39
773.825	142.8
774.129	146.73
774.433	145.99
774.736	145.25
775.04	153.38
775.344	146.15
775.648	148.9
775.951	154.71
776.255	160.48
776.559	167.27
776.862	165.26
777.166	168.52
777.469	160.69
777.772	168.59
778.076	171.71
778.379	180.07
778.682	161.86
778.985	172.24
779.289	160.19
779.592	164.71
779.895	164.05
780.198	164.5
780.501	147.8
780.804	163.52
781.106	171.07
781.409	182.99
781.712	172.91
782.015	178.73
782.317	174.9
782.62	179.29
782.923	188.95
783.225	185.21
783.527	181.52
783.83	173.1
784.132	185.41
784.435	171.27
784.737	176.52
785.039	196.65
785.341	190.94
785.643	200.55
785.945	182.6
786.248	216.7
786.55	197.1
786.851	191.49
787.153	169.57
787.455	168.49
787.757	160.78
788.059	165.59
788.36	144.04
788.662	138.67
788.964	129.15
789.265	120.8
789.567	112.8
789.868	113.28
790.17	102.81
790.471	108.57
790.772	108.17
791.074	110.38
791.375	118.66
791.676	104.78
791.977	108.97
792.278	93.71
792.579	92.06
792.88	92.57
793.181	92.81
793.482	94.1
793.783	88.9
794.083	85.73
794.384	83.61
794.685	83.53
794.986	79.48
795.286	78.79
795.587	76.1
795.887	85.15
796.188	93.28
796.488	102.02
796.788	106.55
797.089	117.36
797.389	111.77
797.689	151.42
797.989	128.04
798.289	152.44
798.589	143.13
798.889	118.96
799.189	143.72
799.489	165.03
799.789	194.52
800.089	158.19
800.389	153.54
800.688	133.29
800.988	130.93
801.288	156.25
801.587	153.46
801.887	168.15
802.186	115.36
802.486	80.77
802.785	94.7
803.085	124.64
803.384	167.28
803.683	155.49
803.982	130.65
804.281	145.94
804.58	153.63
804.879	223.79
805.178	167.92
805.477	163.01
805.776	174.34
806.075	181.52
806.374	190.74
806.673	198.68
806.971	185.86
807.27	208.23
807.569	250.06
807.867	277.54
808.166	256.93
808.464	243.25
808.763	225.72
809.061	236.56
809.359	264.65
809.658	375.97
809.956	613.28
810.254	588.79
810.552	458.78
810.85	449.52
811.148	499.12
811.446	412.22
811.744	398.28
812.042	373.9
812.34	383.46
812.638	420.67
812.935	456.09
813.233	445.41
813.531	480.27
813.828	466.41
814.126	335.37
814.423	349.37
814.721	302.96
815.018	292.37
815.316	288.16
815.613	315.83
815.91	311.49
816.207	304.97
816.504	287.57
816.802	232.3
817.099	212.24
817.396	180.07
817.693	174.82
817.99	184.03
818.286	171.7
818.583	163.6
818.88	177.48
819.177	160.77
819.473	170.9
819.77	160.67
820.067	134.69
820.363	115.57
820.66	109.14
820.956	113.8
821.252	103.64
821.549	123.34
821.845	117.18
822.141	127.35
822.437	139.73
822.734	171.45
823.03	204.82
823.326	183.2
823.622	195.73
823.918	190.98
824.213	231.59
824.509	261.14
824.805	252.89
825.101	249.05
825.397	231.34
825.692	180.76
825.988	241.22
826.283	239.17
826.579	432.53
826.874	265.77
827.17	267.82
827.465	355.56
827.76	2698.04
828.056	-373.6
828.351	-568.51
828.646	-830.22
828.941	-830.32
829.236	-997.72
829.531	-608.98
829.826	3594.52
830.121	289.76
830.416	323.88
830.711	935.46
831.006	-1094.74
831.3	-1317.21
831.595	-437.36
831.89	-320.53
832.184	-293.28
832.479	-221.11
832.773	-265.24
833.068	-167.29
833.362	-2316.94
833.656	-1793.94
833.951	-4836.78
834.245	-969.82
834.539	492.61
834.833	487.74
835.127	314.54
835.421	210.15
835.715	205.45
836.009	241.98
836.303	535.46
836.597	1234.82
836.891	624.97
837.185	448.43
837.478	486.14
837.772	408.7
838.066	265.39
838.359	181.45
838.653	181
838.946	198.25
839.24	183.89
839.533	177.67
839.826	151.73
840.119	151.3
840.413	155.51
840.706	130.64
840.999	118.67
841.292	119.96
841.585	116.21
841.878	190.19
842.171	256.96
842.464	305.94
842.757	249.59
843.049	213.33
843.342	277.77
843.635	167.63
843.927	137.81
844.22	148.12
844.513	174.71
844.805	168.24
845.098	186.05
845.39	193.14
845.682	245.68
845.975	265.01
846.267	243.86
846.559	346.55
846.851	330.06
847.143	545.25
847.435	464.96
847.727	308.7
848.019	-2423.3
848.311	1093.93
848.603	1854.73
848.895	-6429.09
849.186	744.19
849.478	433.14
849.77	551.03
850.061	986.58
850.353	462.54
850.645	326.93
850.936	841.72
851.227	1613.73
851.519	876.11
851.81	1141.64
852.101	-1710.12
852.393	-1659.53
852.684	-57142.86
852.975	2537.28
853.266	1463.35
853.557	-1752.76
853.848	1262.62
854.139	707.94
854.43	596.91
854.72	1082.23
855.011	1268.97
855.302	642.75
855.593	827.81
855.883	306.51
856.174	374.55
856.464	404.43
856.755	340.9
857.045	230.83
857.336	228.27
857.626	251.64
857.916	283.58
858.206	207.74
858.497	198
858.787	210.88
859.077	190.39
859.367	165.52
859.657	165.01
859.947	198.61
860.237	202.09
860.527	244.13
860.816	213.8
861.106	210.96
861.396	223.31
861.685	179.3
861.975	220.28
862.265	178
862.554	164.81
862.844	169.8
863.133	211.89
863.422	210.37
863.712	269.69
864.001	833.23
864.29	-1835.29
864.579	-1098.62
864.868	-743.26
865.157	-8533.33
865.446	4676.92
865.735	-823.63
866.024	4224
866.313	-1298.11
866.602	-552.63
866.891	-466.86
867.179	-247
867.468	-198.8
