Data from T1_Reflection__81__17-54-54-615.txt Node

Date: Wed Jun 02 17:54:54 CEST 2021
User: mabdelazizm
Spectrometer: FLMS18565
Trigger mode: 0
Integration Time (sec): 2.000000E0
Scans to average: 1
Electric dark correction enabled: true
Nonlinearity correction enabled: false
Boxcar width: 12
XAxis mode: Wavelengths
Number of Pixels in Spectrum: 2048
>>>>>Begin Spectral Data<<<<<
179.071	268.61
179.452	757.85
179.833	4112.12
180.214	514.29
180.595	-7087.88
180.977	539.54
181.358	1331.22
181.739	894.67
182.12	489.29
182.501	391.03
182.882	157
183.262	216.56
183.643	1026.24
184.024	-64.8
184.405	6.86
184.786	20.95
185.166	22.69
185.547	24.27
185.927	26.69
186.308	22.79
186.689	14.62
187.069	19.74
187.449	22.85
187.83	24.91
188.21	18.81
188.59	14.79
188.971	14.38
189.351	9.54
189.731	9.38
190.111	13.31
190.491	14.36
190.871	11.55
191.251	11.25
191.631	9.67
192.011	8.45
192.391	8.99
192.771	10.77
193.151	11.74
193.531	8.86
193.91	8.18
194.29	7.64
194.67	6.83
195.049	9.56
195.429	7.24
195.808	7.67
196.188	8.62
196.567	7.76
196.946	6.69
197.326	6.26
197.705	5.37
198.084	7.36
198.464	6.46
198.843	9.09
199.222	11.26
199.601	10.6
199.98	10.17
200.359	11.93
200.738	13.01
201.117	12.4
201.496	12.06
201.875	11.39
202.254	10.55
202.632	9.94
203.011	10.49
203.39	10.05
203.768	9.93
204.147	10.42
204.525	9
204.904	9.77
205.282	10.1
205.661	9.95
206.039	10.5
206.418	10.44
206.796	10.24
207.174	11.45
207.552	11.15
207.931	10.85
208.309	9.64
208.687	9.03
209.065	9.51
209.443	9.88
209.821	8.72
210.199	7.45
210.577	7.62
210.954	7.11
211.332	6.99
211.71	7.39
212.088	7.73
212.465	6.39
212.843	6.05
213.221	6.46
213.598	5.59
213.976	5.09
214.353	4.05
214.731	3.13
215.108	2.91
215.485	2.84
215.863	2.34
216.24	2.23
216.617	2.9
216.994	2.54
217.371	3.08
217.749	3.21
218.126	2.64
218.503	2.64
218.88	2.84
219.256	3.26
219.633	3.36
220.01	4.01
220.387	4.24
220.764	4.46
221.14	4.26
221.517	4.06
221.894	4.44
222.27	4.68
222.647	5.05
223.023	5.25
223.4	5.34
223.776	5.82
224.153	6.21
224.529	6.06
224.905	6.02
225.282	6.01
225.658	5.91
226.034	5.2
226.41	5.38
226.786	5.1
227.162	5.02
227.538	5.07
227.914	4.88
228.29	4.61
228.666	4.27
229.042	4.17
229.418	3.73
229.793	3.98
230.169	3.59
230.545	3.38
230.92	3.25
231.296	3.23
231.672	3.16
232.047	2.81
232.422	2.85
232.798	2.73
233.173	2.46
233.549	2.4
233.924	2.31
234.299	2.28
234.674	2.25
235.05	2.22
235.425	2.21
235.8	2.1
236.175	2.19
236.55	2.08
236.925	2.01
237.3	1.94
237.675	1.9
238.049	2.08
238.424	2.17
238.799	2.19
239.174	2.1
239.548	2.21
239.923	2.14
240.297	2.19
240.672	2.26
241.046	2.25
241.421	2.24
241.795	2.09
242.17	2.11
242.544	2.13
242.918	2
243.293	2.02
243.667	1.93
244.041	1.98
244.415	1.98
244.789	2.13
245.163	2.11
245.537	2.03
245.911	2.07
246.285	2.08
246.659	2.14
247.033	2.16
247.406	2.04
247.78	2.03
248.154	2.08
248.528	2.09
248.901	2.13
249.275	2.24
249.648	2.24
250.022	2.2
250.395	2.23
250.769	2.26
251.142	2.38
251.515	2.38
251.888	2.51
252.262	2.63
252.635	2.63
253.008	2.66
253.381	2.61
253.754	2.61
254.127	2.51
254.5	2.55
254.873	2.52
255.246	2.51
255.619	2.47
255.992	2.43
256.364	2.39
256.737	2.46
257.11	2.51
257.483	2.47
257.855	2.42
258.228	2.39
258.6	2.37
258.973	2.36
259.345	2.34
259.718	2.29
260.09	2.27
260.462	2.21
260.834	2.23
261.207	2.1
261.579	2.06
261.951	2.07
262.323	2.07
262.695	2.05
263.067	2.03
263.439	2.01
263.811	1.99
264.183	2.04
264.555	2.03
264.927	2.03
265.298	2.01
265.67	1.99
266.042	1.89
266.413	1.7
266.785	1.69
267.156	1.65
267.528	1.61
267.899	1.57
268.271	1.56
268.642	1.51
269.013	1.55
269.385	1.54
269.756	1.53
270.127	1.5
270.498	1.57
270.87	1.55
271.241	1.5
271.612	1.46
271.983	1.48
272.354	1.47
272.724	1.47
273.095	1.54
273.466	1.58
273.837	1.6
274.208	1.65
274.578	1.59
274.949	1.61
275.32	1.64
275.69	1.73
276.061	1.85
276.431	1.93
276.802	1.93
277.172	1.95
277.542	1.96
277.913	1.97
278.283	1.95
278.653	1.98
279.023	2.02
279.394	1.99
279.764	1.97
280.134	2
280.504	2.06
280.874	1.98
281.244	1.9
281.614	1.89
281.983	1.85
282.353	1.79
282.723	1.73
283.093	1.72
283.462	1.61
283.832	1.65
284.202	1.61
284.571	1.59
284.941	1.56
285.31	1.43
285.68	1.38
286.049	1.33
286.418	1.32
286.788	1.44
287.157	1.41
287.526	1.34
287.895	1.26
288.264	1.21
288.633	1.24
289.002	1.23
289.371	1.19
289.74	1.09
290.109	1.14
290.478	1.16
290.847	1.18
291.216	1.18
291.585	1.08
291.953	1.05
292.322	1
292.691	1.01
293.059	0.97
293.428	1
293.796	0.98
294.165	1
294.533	1.04
294.901	1.02
295.27	1.06
295.638	1.08
296.006	0.9
296.374	0.94
296.743	0.96
297.111	1
297.479	1
297.847	1.01
298.215	0.96
298.583	0.88
298.95	0.82
299.318	0.81
299.686	0.83
300.054	0.86
300.422	0.84
300.789	0.93
301.157	0.88
301.525	0.89
301.892	0.9
302.26	0.94
302.627	0.92
302.994	0.89
303.362	0.91
303.729	0.86
304.097	0.91
304.464	0.89
304.831	0.84
305.198	0.84
305.565	0.78
305.932	0.73
306.299	0.73
306.666	0.71
307.033	0.64
307.4	0.69
307.767	0.74
308.134	0.82
308.501	0.9
308.867	0.93
309.234	0.89
309.601	0.94
309.967	0.87
310.334	0.94
310.701	0.93
311.067	0.95
311.433	0.96
311.8	1
312.166	1.05
312.533	1.04
312.899	1.02
313.265	1
313.631	1.06
313.997	1.08
314.363	1.1
314.729	1.12
315.096	1.15
315.461	1.18
315.827	1.16
316.193	1.28
316.559	1.22
316.925	1.22
317.291	1.22
317.656	1.23
318.022	1.18
318.388	1.2
318.753	1.17
319.119	1.2
319.484	1.21
319.85	1.23
320.215	1.28
320.581	1.25
320.946	1.2
321.311	1.24
321.676	1.23
322.042	1.26
322.407	1.24
322.772	1.24
323.137	1.28
323.502	1.3
323.867	1.22
324.232	1.22
324.597	1.2
324.962	1.18
325.327	1.04
325.691	1.06
326.056	1.05
326.421	1.01
326.785	0.95
327.15	1.01
327.514	1
327.879	1.05
328.243	1.05
328.608	0.94
328.972	0.93
329.337	0.79
329.701	0.79
330.065	0.83
330.429	0.82
330.794	0.81
331.158	0.82
331.522	0.84
331.886	0.82
332.25	0.8
332.614	0.74
332.978	0.81
333.342	0.84
333.705	0.79
334.069	0.82
334.433	0.86
334.797	0.87
335.16	0.87
335.524	0.85
335.887	0.86
336.251	0.82
336.614	0.74
336.978	0.67
337.341	0.65
337.705	0.76
338.068	0.91
338.431	0.98
338.794	0.94
339.158	0.84
339.521	0.86
339.884	0.87
340.247	0.89
340.61	0.83
340.973	0.78
341.336	0.77
341.699	0.79
342.062	0.82
342.424	0.81
342.787	0.82
343.15	0.83
343.512	0.76
343.875	0.81
344.238	0.81
344.6	0.83
344.963	0.8
345.325	0.78
345.688	0.79
346.05	0.83
346.412	0.87
346.775	0.85
347.137	0.71
347.499	0.71
347.861	0.75
348.223	0.8
348.585	0.79
348.947	0.69
349.309	0.65
349.671	0.71
350.033	0.76
350.395	0.73
350.757	0.74
351.118	0.73
351.48	0.68
351.842	0.6
352.203	0.57
352.565	0.65
352.927	0.59
353.288	0.66
353.65	0.72
354.011	0.77
354.372	0.77
354.734	0.82
355.095	0.88
355.456	0.83
355.817	0.81
356.179	0.83
356.54	0.84
356.901	0.83
357.262	0.87
357.623	0.84
357.984	0.95
358.345	0.95
358.705	0.95
359.066	0.91
359.427	0.93
359.788	0.86
360.148	0.9
360.509	0.93
360.87	1.08
361.23	1.14
361.591	1.15
361.951	1.17
362.312	1.14
362.672	1.12
363.032	1.04
363.393	1.07
363.753	1.1
364.113	1.04
364.473	1.14
364.833	1.16
365.193	1.11
365.553	1.16
365.913	1.2
366.273	1.25
366.633	1.27
366.993	1.17
367.353	1.22
367.713	1.15
368.072	1.13
368.432	1.13
368.792	1.19
369.151	1.19
369.511	1.17
369.87	1.15
370.23	1.07
370.589	1.08
370.949	1.07
371.308	1.08
371.667	0.97
372.027	0.89
372.386	0.91
372.745	0.85
373.104	0.81
373.463	0.77
373.822	0.69
374.181	0.74
374.54	0.72
374.899	0.7
375.258	0.61
375.617	0.55
375.975	0.66
376.334	0.54
376.693	0.52
377.052	0.57
377.41	0.56
377.769	0.48
378.127	0.45
378.486	0.44
378.844	0.4
379.202	0.42
379.561	0.31
379.919	0.35
380.277	0.28
380.636	0.41
380.994	0.57
381.352	0.5
381.71	0.6
382.068	0.65
382.426	0.61
382.784	0.7
383.142	0.62
383.5	0.65
383.857	0.65
384.215	0.74
384.573	0.77
384.931	0.68
385.288	0.69
385.646	0.67
386.003	0.69
386.361	0.69
386.718	0.8
387.076	0.87
387.433	0.93
387.791	0.96
388.148	1.08
388.505	1.12
388.862	1.09
389.22	1.17
389.577	1.14
389.934	1.11
390.291	1.16
390.648	1.14
391.005	1.18
391.362	1.24
391.718	1.17
392.075	1.16
392.432	1.11
392.789	1.08
393.145	1.05
393.502	1.08
393.859	1.22
394.215	1.26
394.572	1.33
394.928	1.31
395.285	1.4
395.641	1.49
395.997	1.46
396.354	1.48
396.71	1.58
397.066	1.56
397.422	1.73
397.778	1.83
398.134	1.77
398.491	1.84
398.846	1.91
399.202	1.98
399.558	1.98
399.914	2.03
400.27	2.14
400.626	2.29
400.981	2.46
401.337	2.61
401.693	2.84
402.048	2.89
402.404	2.98
402.759	3.02
403.115	3.23
403.47	3.46
403.826	3.67
404.181	3.7
404.536	3.82
404.892	4.02
405.247	4.22
405.602	4.37
405.957	4.55
406.312	4.73
406.667	4.88
407.022	5.26
407.377	5.52
407.732	5.95
408.087	6.3
408.442	6.71
408.796	6.93
409.151	7.23
409.506	7.49
409.86	7.84
410.215	8.07
410.57	8.44
410.924	8.88
411.279	9.35
411.633	9.86
411.987	10.25
412.342	10.59
412.696	11.03
413.05	11.65
413.404	12.09
413.758	12.77
414.113	13.32
414.467	13.88
414.821	14.46
415.175	15.09
415.529	15.76
415.882	16.28
416.236	16.89
416.59	17.42
416.944	17.98
417.298	18.57
417.651	19.26
418.005	19.85
418.358	20.64
418.712	21.38
419.065	22.13
419.419	22.72
419.772	23.34
420.126	23.86
420.479	24.46
420.832	25.15
421.185	25.97
421.539	26.48
421.892	26.94
422.245	27.56
422.598	28.02
422.951	28.75
423.304	29.35
423.657	29.93
424.01	30.47
424.363	31.1
424.715	31.77
425.068	32.35
425.421	32.94
425.773	33.5
426.126	34.19
426.479	34.81
426.831	35.44
427.184	35.88
427.536	36.42
427.889	36.93
428.241	37.51
428.593	38.04
428.945	38.66
429.298	39.3
429.65	39.83
430.002	40.21
430.354	40.81
430.706	41.19
431.058	41.61
431.41	42.19
431.762	42.48
432.114	42.95
432.466	43.42
432.817	43.85
433.169	44.22
433.521	44.58
433.872	45.1
434.224	45.33
434.576	45.68
434.927	45.74
435.279	46.03
435.63	46.26
435.981	46.72
436.333	46.97
436.684	47.35
437.035	47.52
437.387	47.73
437.738	47.88
438.089	47.96
438.44	48.06
438.791	48.33
439.142	48.55
439.493	48.88
439.844	49.25
440.195	49.26
440.545	49.43
440.896	49.55
441.247	49.74
441.598	49.93
441.948	50.06
442.299	50.22
442.649	50.24
443	50.4
443.35	50.43
443.701	50.56
444.051	50.6
444.401	50.79
444.752	50.56
445.102	50.48
445.452	50.44
445.802	50.6
446.152	50.78
446.502	51.03
446.852	51.18
447.202	51.24
447.552	51.42
447.902	51.58
448.252	51.7
448.602	53.33
448.952	53.55
449.301	53.7
449.651	53.98
450.001	54.1
450.35	54.22
450.7	54.32
451.049	54.49
451.399	54.69
451.748	54.95
452.097	55.16
452.447	55.51
452.796	55.55
453.145	55.71
453.494	56.17
453.843	56.62
454.193	56.92
454.542	57.1
454.891	57.39
455.239	57.57
455.588	57.79
455.937	58.25
456.286	58.44
456.635	58.52
456.984	58.82
457.332	57.16
457.681	57.38
458.03	57.59
458.378	57.74
458.727	57.99
459.075	58.46
459.423	59
459.772	59.18
460.12	59.45
460.468	59.37
460.817	59.64
461.165	59.81
461.513	60.16
461.861	60.4
462.209	60.59
462.557	60.51
462.905	60.44
463.253	60.64
463.601	60.64
463.949	60.51
464.297	60.52
464.644	60.53
464.992	60.48
465.34	60.53
465.687	60.29
466.035	60.33
466.383	60.3
466.73	60.29
467.078	60.3
467.425	60.25
467.772	59.96
468.12	59.64
468.467	59.72
468.814	59.73
469.161	59.86
469.508	59.55
469.856	59.15
470.203	59.05
470.55	58.74
470.897	58.57
471.243	58.58
471.59	58.73
471.937	58.57
472.284	58.63
472.631	58.69
472.977	58.76
473.324	58.78
473.671	58.83
474.017	58.77
474.364	58.9
474.71	58.78
475.057	58.76
475.403	58.61
475.749	58.57
476.096	58.53
476.442	58.63
476.788	58.94
477.134	58.94
477.48	58.94
477.826	59.06
478.172	59.35
478.518	59.7
478.864	59.94
479.21	60.27
479.556	60.48
479.902	60.64
480.248	60.58
480.593	60.69
480.939	60.83
481.285	60.96
481.63	60.94
481.976	61.11
482.321	61.28
482.667	61.46
483.012	61.66
483.357	61.93
483.703	62.15
484.048	62.6
484.393	62.8
484.738	63.09
485.084	63.31
485.429	63.33
485.774	63.65
486.119	63.86
486.464	64.16
486.808	64.43
487.153	64.71
487.498	65.04
487.843	65.19
488.188	65.42
488.532	65.59
488.877	66.15
489.222	66.5
489.566	66.74
489.911	67.16
490.255	67.61
490.6	67.86
490.944	68.12
491.288	68.4
491.633	68.61
491.977	68.83
492.321	69.19
492.665	69.25
493.009	69.57
493.353	69.93
493.697	70.09
494.041	70.41
494.385	70.59
494.729	70.84
495.073	71.08
495.417	71.39
495.76	71.56
496.104	71.59
496.448	71.83
496.791	72.04
497.135	72.31
497.479	72.34
497.822	72.6
498.165	72.82
498.509	72.96
498.852	73.08
499.196	73.22
499.539	73.36
499.882	73.64
500.225	74.05
500.568	74.18
500.911	74.19
501.254	74.41
501.597	74.5
501.94	74.42
502.283	74.54
502.626	74.58
502.969	74.81
503.312	74.88
503.654	75.04
503.997	75.01
504.34	75.27
504.682	75.36
505.025	75.6
505.367	75.59
505.71	75.47
506.052	75.62
506.395	75.65
506.737	75.81
507.079	76.04
507.421	76.07
507.764	76.07
508.106	76.17
508.448	76.16
508.79	76.07
509.132	76.12
509.474	76.21
509.816	76.24
510.158	76.22
510.499	76.3
510.841	76.36
511.183	76.39
511.525	76.31
511.866	76.44
512.208	76.46
512.549	76.52
512.891	76.35
513.232	76.44
513.574	76.32
513.915	76.25
514.256	76.52
514.598	76.42
514.939	76.41
515.28	76.4
515.621	76.3
515.962	76.27
516.303	76.46
516.644	76.52
516.985	76.62
517.326	76.65
517.667	76.7
518.008	76.61
518.349	76.72
518.69	76.73
519.03	76.61
519.371	76.61
519.712	76.72
520.052	76.7
520.393	76.55
520.733	76.59
521.074	76.45
521.414	76.56
521.754	76.63
522.095	76.71
522.435	76.94
522.775	77.02
523.115	77.32
523.455	77.35
523.795	77.09
524.135	76.89
524.475	76.97
524.815	76.87
525.155	76.83
525.495	76.79
525.835	76.72
526.175	76.75
526.514	76.92
526.854	76.91
527.194	76.86
527.533	77.12
527.873	77.27
528.212	77.24
528.552	77.48
528.891	77.61
529.23	77.56
529.57	77.64
529.909	77.63
530.248	77.48
530.587	77.35
530.927	77.36
531.266	77.15
531.605	77
531.944	77.22
532.283	77.36
532.621	77.54
532.96	77.65
533.299	77.82
533.638	77.9
533.977	78.1
534.315	78.17
534.654	78.32
534.992	78.32
535.331	78.18
535.67	78.3
536.008	78.51
536.346	78.46
536.685	78.46
537.023	78.17
537.361	78.15
537.7	78.19
538.038	78.3
538.376	78.06
538.714	78.17
539.052	78.41
539.39	78.38
539.728	78.48
540.066	78.59
540.404	78.38
540.741	78.46
541.079	78.55
541.417	78.37
541.755	78.2
542.092	78.13
542.43	77.78
542.767	77.62
543.105	77.44
543.442	77.44
543.78	77.58
544.117	77.6
544.454	77.27
544.792	77.31
545.129	77.47
545.466	77.83
545.803	77.96
546.14	77.72
546.477	77.8
546.814	78.12
547.151	78.18
547.488	78.09
547.825	78.12
548.162	78.12
548.499	78.12
548.835	78.01
549.172	78.09
549.509	77.8
549.845	77.8
550.182	77.64
550.518	77.56
550.855	77.8
551.191	77.97
551.528	77.94
551.864	78.05
552.2	78
552.537	78.04
552.873	78.22
553.209	78.19
553.545	78.06
553.881	77.94
554.217	77.87
554.553	78.22
554.889	78.19
555.225	77.91
555.561	77.77
555.896	77.64
556.232	77.62
556.568	77.66
556.903	77.69
557.239	77.77
557.575	77.64
557.91	77.89
558.245	78.24
558.581	78.67
558.916	78.66
559.252	78.43
559.587	78.31
559.922	78.56
560.257	78.54
560.592	78.56
560.928	78.53
561.263	78.69
561.598	78.66
561.933	78.75
562.267	78.88
562.602	78.84
562.937	78.6
563.272	78.76
563.607	79.04
563.941	79.27
564.276	79.4
564.611	79.65
564.945	79.64
565.28	79.73
565.614	79.57
565.949	79.46
566.283	79.47
566.617	79.28
566.951	79.16
567.286	79.23
567.62	79.31
567.954	79.63
568.288	79.6
568.622	79.47
568.956	79.6
569.29	79.65
569.624	79.43
569.958	79.6
570.292	79.72
570.626	79.54
570.959	79.52
571.293	79.69
571.627	79.54
571.96	79.5
572.294	79.33
572.627	79.2
572.961	79.04
573.294	79.13
573.627	79
573.961	79.17
574.294	79.43
574.627	79.37
574.961	79.54
575.294	79.55
575.627	79.62
575.96	79.71
576.293	79.57
576.626	79.51
576.959	79.45
577.292	79.36
577.624	79.31
577.957	79.43
578.29	79.53
578.623	79.54
578.955	79.63
579.288	79.73
579.62	79.69
579.953	79.87
580.285	79.9
580.618	79.9
580.95	80.06
581.282	80.15
581.615	80.16
581.947	80.13
582.279	80.1
582.611	80.1
582.943	80.14
583.275	80.07
583.607	79.94
583.939	79.96
584.271	79.94
584.603	80.01
584.935	80.03
585.267	80.16
585.598	80.06
585.93	80.35
586.262	80.53
586.593	80.37
586.925	80.22
587.256	80.1
587.588	79.96
587.919	79.91
588.25	79.61
588.582	79.59
588.913	79.81
589.244	79.84
589.575	79.96
589.907	79.96
590.238	80.09
590.569	80.11
590.9	80.05
591.231	80.06
591.562	80.1
591.892	80.24
592.223	80.07
592.554	80
592.885	79.88
593.215	79.67
593.546	79.73
593.877	79.77
594.207	79.61
594.538	79.48
594.868	79.36
595.198	79.38
595.529	79.54
595.859	79.57
596.189	79.64
596.52	79.69
596.85	79.8
597.18	79.85
597.51	79.71
597.84	79.52
598.17	79.4
598.5	79.52
598.83	79.33
599.16	79.29
599.489	79.32
599.819	79.27
600.149	79.36
600.479	79.32
600.808	79.4
601.138	79.28
601.467	79.56
601.797	79.56
602.126	79.7
602.456	79.52
602.785	79.43
603.114	79.42
603.443	79.32
603.773	79.51
604.102	79.55
604.431	79.39
604.76	79.45
605.089	79.33
605.418	79.14
605.747	79.09
606.076	78.97
606.405	79.15
606.733	79.05
607.062	79.16
607.391	79.09
607.72	79.05
608.048	78.93
608.377	78.83
608.705	79.07
609.034	78.91
609.362	78.95
609.69	78.95
610.019	78.86
610.347	78.82
610.675	78.89
611.004	78.96
611.332	79.25
611.66	79.63
611.988	79.03
612.316	79.06
612.644	78.92
612.972	78.94
613.3	78.66
613.627	78.77
613.955	78.86
614.283	78.98
614.611	78.9
614.938	79.13
615.266	79.42
615.593	79.23
615.921	79.36
616.248	79.54
616.576	79.4
616.903	79.31
617.23	79.33
617.558	79.8
617.885	79.78
618.212	79.73
618.539	79.73
618.866	80.1
619.193	80.11
619.52	79.57
619.847	78.9
620.174	78.99
620.501	79.06
620.828	79.17
621.155	79.24
621.481	79.46
621.808	79.23
622.135	79.26
622.461	79.42
622.788	79.39
623.114	78.87
623.441	78.59
623.767	78.72
624.093	78.92
624.42	78.84
624.746	79.35
625.072	79.66
625.398	79.81
625.725	79.75
626.051	79.13
626.377	79.51
626.703	79.37
627.029	78.99
627.354	78.76
627.68	79.07
628.006	79.41
628.332	79.08
628.658	79.19
628.983	79.91
629.309	80.38
629.634	80.42
629.96	80.62
630.285	80.65
630.611	80.54
630.936	80.64
631.262	81.04
631.587	81.81
631.912	81.82
632.237	81.29
632.562	81.21
632.887	80.59
633.213	79.99
633.538	80.03
633.863	79.47
634.187	79.95
634.512	79.7
634.837	79.13
635.162	79.1
635.487	79.3
635.811	79.19
636.136	79.77
636.461	80.82
636.785	80.73
637.11	80.35
637.434	79.82
637.758	80.05
638.083	80.04
638.407	80.12
638.731	80.86
639.056	80.83
639.38	80.88
639.704	80
640.028	80.64
640.352	80.79
640.676	80.92
641	81.29
641.324	81.75
641.648	81.6
641.972	82.67
642.295	83.34
642.619	83.65
642.943	84
643.266	83.72
643.59	83.24
643.913	83.24
644.237	82.41
644.56	82.22
644.884	82.05
645.207	82.27
645.53	82.38
645.854	82.4
646.177	82.45
646.5	82.9
646.823	81.9
647.146	81.82
647.469	81.56
647.792	81.55
648.115	81.48
648.438	81.91
648.761	84.49
649.084	83.78
649.406	82.38
649.729	80.92
650.052	80.12
650.374	79.92
650.697	79.63
651.019	79.71
651.342	79.85
651.664	79.97
651.987	79.87
652.309	79.92
652.631	80.08
652.953	79.8
653.276	79.76
653.598	79.63
653.92	79.78
654.242	79.94
654.564	79.89
654.886	79.91
655.208	79.91
655.53	79.84
655.851	79.97
656.173	79.85
656.495	79.85
656.816	78.77
657.138	78.32
657.46	78.58
657.781	80.12
658.103	81.19
658.424	82.16
658.746	83.41
659.067	83.73
659.388	83.82
659.709	83.87
660.031	84.51
660.352	85.33
660.673	84.31
660.994	84.89
661.315	84.98
661.636	85.3
661.957	84.71
662.278	83.22
662.599	82.8
662.919	82.98
663.24	82.49
663.561	82.58
663.881	82.26
664.202	81.95
664.523	80.76
664.843	80.05
665.164	80.14
665.484	78.74
665.804	78.52
666.125	79.57
666.445	77.7
666.765	76.86
667.085	76.91
667.405	77.32
667.726	78.02
668.046	78.25
668.366	77.6
668.686	78.2
669.005	78.92
669.325	78.86
669.645	79.18
669.965	78.96
670.285	79.24
670.604	79.06
670.924	79.71
671.243	79.45
671.563	79.69
671.882	80.08
672.202	80.79
672.521	81.63
672.841	81.31
673.16	81.73
673.479	82.74
673.798	83.6
674.117	83.75
674.437	84.42
674.756	85.34
675.075	84.67
675.394	84.44
675.713	83.11
676.031	82.34
676.35	82.8
676.669	82.52
676.988	82.93
677.306	81.78
677.625	82.64
677.944	83.36
678.262	83.73
678.581	84.19
678.899	83.7
679.218	84.96
679.536	85.2
679.854	84.81
680.172	84.62
680.491	84.63
680.809	84.98
681.127	84.66
681.445	84.33
681.763	83.78
682.081	82.93
682.399	83.04
682.717	82.78
683.035	84.36
683.352	84.41
683.67	84.01
683.988	84.92
684.306	85.23
684.623	84.17
684.941	84.37
685.258	85.7
685.576	84.5
685.893	83.96
686.211	84.82
686.528	85.68
686.845	86.06
687.162	86.61
687.48	85.69
687.797	85.86
688.114	85.51
688.431	84.34
688.748	83.99
689.065	83.77
689.382	83.39
689.699	85.18
690.015	84.79
690.332	84.93
690.649	84.74
690.966	83.2
691.282	82.21
691.599	83.6
691.915	83.67
692.232	83.12
692.548	84.77
692.865	83.78
693.181	82.61
693.497	83.71
693.813	84.48
694.13	82.97
694.446	81.36
694.762	81.96
695.078	80
695.394	81.42
695.71	81.86
696.026	82.59
696.342	83.59
696.658	83.68
696.973	83.81
697.289	85.41
697.605	84.25
697.92	85.49
698.236	87.04
698.551	86.37
698.867	88.22
699.182	89.51
699.498	88.59
699.813	88.48
700.128	88.56
700.444	88.95
700.759	87.88
701.074	88.48
701.389	88.11
701.704	88.55
702.019	90
702.334	91.22
702.649	90.36
702.964	90.54
703.279	89.85
703.594	89.99
703.908	89.41
704.223	89.39
704.538	88.87
704.852	89.81
705.167	89.16
705.481	88.35
705.796	87.77
706.11	87.42
706.425	88.75
706.739	86.98
707.053	87.28
707.368	88.35
707.682	87.79
707.996	88.71
708.31	88.19
708.624	89.11
708.938	88.23
709.252	87.46
709.566	86.37
709.88	85.53
710.193	84.73
710.507	84.79
710.821	86.81
711.135	87.02
711.448	86.3
711.762	86.59
712.075	85.3
712.389	86.26
712.702	86.17
713.015	86.57
713.329	86.13
713.642	87.13
713.955	87.39
714.269	86.48
714.582	87.76
714.895	86.6
715.208	85.1
715.521	85.5
715.834	84.74
716.147	84.93
716.459	85.57
716.772	86.78
717.085	87.06
717.398	85.52
717.71	84.4
718.023	82.71
718.336	84.01
718.648	83.25
718.961	83.6
719.273	85.82
719.585	85.03
719.898	86.95
720.21	85.05
720.522	82.92
720.834	82.43
721.147	86.04
721.459	85
721.771	83.14
722.083	83.23
722.395	82.02
722.707	82.3
723.019	82.9
723.33	82.69
723.642	82.73
723.954	81.73
724.265	82.18
724.577	82.66
724.889	82.85
725.2	84.34
725.512	85.1
725.823	86.5
726.135	86.05
726.446	84.68
726.757	84.25
727.068	83.93
727.38	86.24
727.691	86.59
728.002	90.19
728.313	92.03
728.624	91.84
728.935	89.97
729.246	89.16
729.557	90.13
729.867	91.15
730.178	91.68
730.489	90.79
730.8	91.49
731.11	91.49
731.421	90.67
731.731	90.88
732.042	89.88
732.352	90.73
732.663	89.8
732.973	90.01
733.283	90.96
733.594	91.03
733.904	91.16
734.214	91.5
734.524	92.68
734.834	92.34
735.144	91.43
735.454	90.6
735.764	87.28
736.074	86.56
736.384	86.41
736.694	85.86
737.003	86.82
737.313	85.45
737.623	82.6
737.932	83.7
738.242	85.94
738.551	87.64
738.861	87.27
739.17	88.19
739.479	87.8
739.789	88.25
740.098	87.93
740.407	88.99
740.716	88.4
741.025	87.24
741.334	89.39
741.643	88.46
741.952	89.04
742.261	87.6
742.57	87.5
742.879	87.65
743.188	88.24
743.497	89.2
743.805	89.12
744.114	91.75
744.422	94.37
744.731	93.93
745.04	97.55
745.348	101.71
745.656	101.12
745.965	101.26
746.273	96.43
746.581	101.62
746.889	101.13
747.198	101.91
747.506	100.8
747.814	100.32
748.122	101.12
748.43	102.72
748.738	105.11
749.046	102.67
749.353	102.22
749.661	102.71
749.969	102.51
750.277	102.13
750.584	102.45
750.892	103.92
751.199	107.47
751.507	106.08
751.814	102.82
752.122	101.39
752.429	100.1
752.736	99.12
753.044	99.41
753.351	99.04
753.658	98.06
753.965	98.92
754.272	94.63
754.579	95.75
754.886	95.06
755.193	95.5
755.5	93.73
755.807	94.56
756.114	93.5
756.42	93.3
756.727	94.92
757.034	95.85
757.34	97.32
757.647	98.93
757.953	98.09
758.26	97.64
758.566	98.1
758.872	95
759.179	97.2
759.485	99.11
759.791	98.89
760.097	96.99
760.403	97.64
760.709	96.64
761.015	96.32
761.321	96.85
761.627	98.59
761.933	98.39
762.239	99.53
762.545	100.72
762.851	103.09
763.156	104.13
763.462	107.8
763.767	107.04
764.073	105.24
764.378	101.11
764.684	101.18
764.989	99.54
765.295	99.38
765.6	98.01
765.905	96.94
766.21	94.76
766.515	97.21
766.821	98.09
767.126	94.62
767.431	93.72
767.736	99.49
768.041	99.5
768.345	100.07
768.65	99.98
768.955	97.55
769.26	94.93
769.564	99.18
769.869	94.2
770.174	91.97
770.478	89.93
770.783	89.64
771.087	84.22
771.391	84.01
771.696	89.72
772	93.24
772.304	93.76
772.608	98.06
772.913	103.49
773.217	110.79
773.521	108.83
773.825	112.15
774.129	107.15
774.433	107.56
774.736	117.12
775.04	127.64
775.344	127.37
775.648	126.45
775.951	128.6
776.255	139.25
776.559	141.28
776.862	142.76
777.166	138.27
777.469	139.42
777.772	157.4
778.076	162.79
778.379	164.02
778.682	148.69
778.985	160.11
779.289	152.77
779.592	165.91
779.895	174.18
780.198	170.31
780.501	150.96
780.804	161.69
781.106	167.68
781.409	173.68
781.712	179.8
782.015	172.88
782.317	159.47
782.62	151.77
782.923	159.18
783.225	165.22
783.527	160.14
783.83	146.71
784.132	161.67
784.435	153.14
784.737	162.57
785.039	175.02
785.341	166.85
785.643	177.61
785.945	167.49
786.248	199.42
786.55	180.03
786.851	160.85
787.153	141.11
787.455	140.77
787.757	138.48
788.059	148.57
788.36	134.11
788.662	141.21
788.964	136.93
789.265	131.9
789.567	132.63
789.868	133.68
790.17	124.21
790.471	123.51
790.772	116.96
791.074	116.58
791.375	121.85
791.676	115.65
791.977	123.6
792.278	110.03
792.579	105.88
792.88	106.78
793.181	97.38
793.482	98.59
793.783	91.86
794.083	94.88
794.384	102.67
794.685	98.6
794.986	87.2
795.286	91.73
795.587	80.29
795.887	86.43
796.188	88.8
796.488	94.27
796.788	90.32
797.089	89.24
797.389	88.98
797.689	121.9
797.989	121.91
798.289	126.82
798.589	145.53
798.889	126.88
799.189	129.7
799.489	128.9
799.789	138.27
800.089	141.57
800.389	136.82
800.688	138.88
800.988	142.31
801.288	179.46
801.587	154.87
801.887	191.58
802.186	196.2
802.486	178.59
802.785	156.64
803.085	229.15
803.384	245.32
803.683	175.89
803.982	153.93
804.281	196.34
804.58	232.46
804.879	299.64
805.178	233.58
805.477	226.57
805.776	254.65
806.075	235.03
806.374	265.01
806.673	248.7
806.971	267.37
807.27	290.29
807.569	305.54
807.867	318.29
808.166	312.11
808.464	289.25
808.763	271.64
809.061	297.83
809.359	295.46
809.658	339.66
809.956	490.29
810.254	483.25
810.552	357.79
810.85	380.16
811.148	428.16
811.446	374.29
811.744	361.75
812.042	328.4
812.34	319.79
812.638	366.33
812.935	343.75
813.233	345.31
813.531	360.26
813.828	328.98
814.126	262.64
814.423	252.56
814.721	207.34
815.018	201.14
815.316	198.01
815.613	203.01
815.91	209.8
816.207	213.96
816.504	185.41
816.802	150.96
817.099	155.76
817.396	131.52
817.693	128.32
817.99	143.78
818.286	120.82
818.583	109.83
818.88	115.78
819.177	94.72
819.473	96.15
819.77	91.77
820.067	80.14
820.363	75.66
820.66	79.04
820.956	80.32
821.252	75.92
821.549	97.23
821.845	80.16
822.141	93.69
822.437	96.21
822.734	105.19
823.03	136.3
823.326	131.87
823.622	136.74
823.918	130.74
824.213	175.25
824.509	178.04
824.805	162.69
825.101	167.82
825.397	150.65
825.692	147.52
825.988	214.5
826.283	197.55
826.579	350.63
826.874	209.93
827.17	205.11
827.465	234.71
827.76	1488.24
828.056	-145.52
828.351	-237.55
828.646	-430.42
828.941	-435.28
829.236	-506.84
829.531	-167.61
829.826	905.48
830.121	97.75
830.416	149.94
830.711	461.66
831.006	-390.69
831.3	-858.14
831.595	-117.77
831.89	12.52
832.184	-99.64
832.479	-52.77
832.773	-0.53
833.068	43.81
833.362	-326.23
833.656	-161.47
833.951	-778.16
834.245	-209.97
834.539	122.79
834.833	142.74
835.127	89.9
835.421	61.62
835.715	65.24
836.009	61.76
836.303	110.79
836.597	264.71
836.891	198.51
837.185	226.22
837.478	288.4
837.772	182.19
838.066	116.8
838.359	113.3
838.653	90.39
838.946	126.18
839.24	134.42
839.533	115.56
839.826	105.72
840.119	111.44
840.413	111.67
840.706	82.09
840.999	74.45
841.292	62.78
841.585	53.22
841.878	84.42
842.171	103.14
842.464	123.08
842.757	160.62
843.049	156.7
843.342	197.72
843.635	118.38
843.927	120.23
844.22	120.7
844.513	119.06
844.805	106.19
845.098	122.55
845.39	125.58
845.682	140.29
845.975	147.71
846.267	167.81
846.559	284.1
846.851	318.69
847.143	578.96
847.435	553.33
847.727	434.43
848.019	-3484.47
848.311	1279.55
848.603	2127.86
848.895	-7572.73
849.186	863.64
849.478	486
849.77	731.28
850.061	1325.56
850.353	475.7
850.645	337.69
850.936	904.54
851.227	1739.48
851.519	1053.07
851.81	1223.61
852.101	-1660.32
852.393	-1654.42
852.684	-42128.57
852.975	1754.44
853.266	1077.94
853.557	-1296.98
853.848	768.37
854.139	433.87
854.43	429.31
854.72	896.82
855.011	998.67
855.302	631.99
855.593	838.65
855.883	336.32
856.174	357.34
856.464	408.35
856.755	362.52
857.045	247.53
857.336	241.63
857.626	263.65
857.916	303.79
858.206	200.84
858.497	171.38
858.787	185.25
859.077	173.78
859.367	171.04
859.657	177.02
859.947	211.27
860.237	219.76
860.527	266.51
860.816	210.95
861.106	205.68
861.396	208.52
861.685	130.06
861.975	122.54
862.265	99.83
862.554	77.2
862.844	82.33
863.133	87.08
863.422	119.86
863.712	148.56
864.001	487.22
864.29	-829.41
864.579	-373.73
864.868	-339.72
865.157	-4329.63
865.446	3084.62
865.735	-563.29
866.024	2228
866.313	-813.21
866.602	-263.16
866.891	-200.28
867.179	-159.91
867.468	-123.65
