Data from T1_Reflection__8__20-14-30-463.txt Node

Date: Wed Jun 02 20:14:30 CEST 2021
User: mabdelazizm
Spectrometer: FLMS18565
Trigger mode: 0
Integration Time (sec): 2.000000E0
Scans to average: 1
Electric dark correction enabled: true
Nonlinearity correction enabled: false
Boxcar width: 12
XAxis mode: Wavelengths
Number of Pixels in Spectrum: 2048
>>>>>Begin Spectral Data<<<<<
179.071	71.88
179.452	56.11
179.833	54.16
180.214	20
180.595	1.42
180.977	6.82
181.358	15.63
181.739	-2.08
182.12	-48.47
182.501	-99.73
182.882	-98.37
183.262	-49
183.643	237.6
184.024	70.76
184.405	53.19
184.786	40.45
185.166	28.25
185.547	26.65
185.927	29.58
186.308	33.68
186.689	32.19
187.069	34.79
187.449	34.07
187.83	33.32
188.21	33.13
188.59	32.11
188.971	29.31
189.351	28.14
189.731	24.28
190.111	23.19
190.491	22.41
190.871	21.23
191.251	21
191.631	19.37
192.011	17.9
192.391	16.17
192.771	18.35
193.151	15.83
193.531	16.29
193.91	14.44
194.29	14.06
194.67	14.26
195.049	14.31
195.429	14.03
195.808	13.58
196.188	14.03
196.567	12.26
196.946	12.12
197.326	12.58
197.705	12.29
198.084	10.84
198.464	12
198.843	11.52
199.222	12.1
199.601	11.41
199.98	11.53
200.359	12.1
200.738	12.31
201.117	13.25
201.496	13.76
201.875	14.33
202.254	13.37
202.632	13.55
203.011	12.58
203.39	12.97
203.768	12.61
204.147	13.15
204.525	13.27
204.904	14.13
205.282	14.72
205.661	13.81
206.039	14.13
206.418	13.95
206.796	13.83
207.174	13.08
207.552	13.05
207.931	12.24
208.309	12.68
208.687	12.13
209.065	12.26
209.443	12.84
209.821	12.88
210.199	12.19
210.577	11.06
210.954	10.68
211.332	10.25
211.71	11.11
212.088	11.42
212.465	11.1
212.843	10.76
213.221	10.91
213.598	10.7
213.976	9.85
214.353	8.82
214.731	7.89
215.108	7.58
215.485	7.37
215.863	7.09
216.24	6.31
216.617	6.42
216.994	7.11
217.371	6.78
217.749	6.3
218.126	6.71
218.503	6.08
218.88	5.83
219.256	5.57
219.633	5.95
220.01	5.84
220.387	5.44
220.764	5.53
221.14	4.81
221.517	4.75
221.894	4.65
222.27	4.48
222.647	4.09
223.023	3.75
223.4	4.05
223.776	4.19
224.153	4.38
224.529	4.46
224.905	4.48
225.282	4.38
225.658	4.31
226.034	4.03
226.41	3.87
226.786	3.81
227.162	3.72
227.538	3.3
227.914	3.26
228.29	3.15
228.666	3.01
229.042	2.75
229.418	2.68
229.793	2.64
230.169	2.64
230.545	2.42
230.92	2.37
231.296	2.39
231.672	2.38
232.047	2.38
232.422	2.47
232.798	2.29
233.173	2.13
233.549	1.94
233.924	1.86
234.299	1.76
234.674	1.72
235.05	1.84
235.425	1.73
235.8	1.73
236.175	1.72
236.55	1.72
236.925	1.76
237.3	1.8
237.675	1.65
238.049	1.6
238.424	1.59
238.799	1.61
239.174	1.65
239.548	1.64
239.923	1.66
240.297	1.63
240.672	1.51
241.046	1.5
241.421	1.51
241.795	1.42
242.17	1.44
242.544	1.48
242.918	1.5
243.293	1.49
243.667	1.44
244.041	1.45
244.415	1.35
244.789	1.38
245.163	1.33
245.537	1.3
245.911	1.27
246.285	1.32
246.659	1.28
247.033	1.38
247.406	1.38
247.78	1.34
248.154	1.32
248.528	1.29
248.901	1.24
249.275	1.23
249.648	1.13
250.022	1.17
250.395	1.14
250.769	1.12
251.142	1.11
251.515	1.11
251.888	1.14
252.262	1.12
252.635	1.08
253.008	1.14
253.381	1.12
253.754	1.14
254.127	1.14
254.5	1.11
254.873	1.09
255.246	1.05
255.619	0.94
255.992	0.91
256.364	0.88
256.737	0.86
257.11	0.86
257.483	0.88
257.855	0.9
258.228	0.87
258.6	0.9
258.973	0.9
259.345	0.88
259.718	0.86
260.09	0.87
260.462	0.86
260.834	0.84
261.207	0.75
261.579	0.75
261.951	0.83
262.323	0.84
262.695	0.85
263.067	0.81
263.439	0.78
263.811	0.74
264.183	0.78
264.555	0.85
264.927	0.87
265.298	0.92
265.67	0.88
266.042	0.84
266.413	0.83
266.785	0.83
267.156	0.81
267.528	0.8
267.899	0.77
268.271	0.79
268.642	0.83
269.013	0.82
269.385	0.82
269.756	0.83
270.127	0.78
270.498	0.8
270.87	0.81
271.241	0.72
271.612	0.66
271.983	0.62
272.354	0.64
272.724	0.66
273.095	0.67
273.466	0.66
273.837	0.62
274.208	0.65
274.578	0.62
274.949	0.66
275.32	0.64
275.69	0.64
276.061	0.6
276.431	0.59
276.802	0.63
277.172	0.62
277.542	0.63
277.913	0.6
278.283	0.63
278.653	0.59
279.023	0.6
279.394	0.63
279.764	0.64
280.134	0.61
280.504	0.65
280.874	0.74
281.244	0.72
281.614	0.7
281.983	0.68
282.353	0.67
282.723	0.66
283.093	0.65
283.462	0.63
283.832	0.61
284.202	0.57
284.571	0.63
284.941	0.62
285.31	0.56
285.68	0.52
286.049	0.55
286.418	0.52
286.788	0.57
287.157	0.6
287.526	0.54
287.895	0.55
288.264	0.59
288.633	0.63
289.002	0.62
289.371	0.62
289.74	0.57
290.109	0.45
290.478	0.49
290.847	0.5
291.216	0.5
291.585	0.51
291.953	0.48
292.322	0.49
292.691	0.48
293.059	0.46
293.428	0.45
293.796	0.46
294.165	0.45
294.533	0.45
294.901	0.59
295.27	0.52
295.638	0.54
296.006	0.49
296.374	0.48
296.743	0.5
297.111	0.5
297.479	0.4
297.847	0.34
298.215	0.36
298.583	0.33
298.95	0.33
299.318	0.37
299.686	0.33
300.054	0.3
300.422	0.34
300.789	0.32
301.157	0.34
301.525	0.27
301.892	0.29
302.26	0.33
302.627	0.35
302.994	0.33
303.362	0.39
303.729	0.44
304.097	0.34
304.464	0.31
304.831	0.34
305.198	0.36
305.565	0.34
305.932	0.37
306.299	0.35
306.666	0.35
307.033	0.38
307.4	0.39
307.767	0.37
308.134	0.37
308.501	0.37
308.867	0.37
309.234	0.4
309.601	0.37
309.967	0.41
310.334	0.42
310.701	0.48
311.067	0.44
311.433	0.47
311.8	0.47
312.166	0.44
312.533	0.43
312.899	0.46
313.265	0.44
313.631	0.49
313.997	0.44
314.363	0.43
314.729	0.41
315.096	0.45
315.461	0.47
315.827	0.55
316.193	0.54
316.559	0.52
316.925	0.56
317.291	0.55
317.656	0.54
318.022	0.58
318.388	0.56
318.753	0.56
319.119	0.58
319.484	0.57
319.85	0.56
320.215	0.55
320.581	0.51
320.946	0.46
321.311	0.5
321.676	0.5
322.042	0.5
322.407	0.54
322.772	0.55
323.137	0.53
323.502	0.54
323.867	0.55
324.232	0.49
324.597	0.46
324.962	0.45
325.327	0.49
325.691	0.48
326.056	0.52
326.421	0.63
326.785	0.63
327.15	0.62
327.514	0.63
327.879	0.69
328.243	0.61
328.608	0.67
328.972	0.65
329.337	0.65
329.701	0.68
330.065	0.74
330.429	0.66
330.794	0.65
331.158	0.65
331.522	0.59
331.886	0.56
332.25	0.56
332.614	0.53
332.978	0.54
333.342	0.52
333.705	0.56
334.069	0.58
334.433	0.53
334.797	0.53
335.16	0.5
335.524	0.42
335.887	0.45
336.251	0.45
336.614	0.41
336.978	0.35
337.341	0.38
337.705	0.35
338.068	0.38
338.431	0.4
338.794	0.36
339.158	0.34
339.521	0.38
339.884	0.37
340.247	0.27
340.61	0.31
340.973	0.38
341.336	0.4
341.699	0.43
342.062	0.46
342.424	0.47
342.787	0.43
343.15	0.4
343.512	0.43
343.875	0.46
344.238	0.48
344.6	0.4
344.963	0.39
345.325	0.39
345.688	0.42
346.05	0.45
346.412	0.47
346.775	0.39
347.137	0.44
347.499	0.46
347.861	0.46
348.223	0.54
348.585	0.52
348.947	0.5
349.309	0.57
349.671	0.59
350.033	0.54
350.395	0.55
350.757	0.56
351.118	0.6
351.48	0.62
351.842	0.61
352.203	0.58
352.565	0.53
352.927	0.52
353.288	0.52
353.65	0.62
354.011	0.62
354.372	0.57
354.734	0.65
355.095	0.65
355.456	0.62
355.817	0.66
356.179	0.63
356.54	0.66
356.901	0.68
357.262	0.62
357.623	0.62
357.984	0.6
358.345	0.57
358.705	0.5
359.066	0.42
359.427	0.44
359.788	0.43
360.148	0.32
360.509	0.28
360.87	0.31
361.23	0.23
361.591	0.27
361.951	0.22
362.312	0.18
362.672	0.18
363.032	0.15
363.393	0.19
363.753	0.12
364.113	0.07
364.473	0.18
364.833	0.17
365.193	0.12
365.553	0.02
365.913	0.03
366.273	0.04
366.633	0.05
366.993	0.03
367.353	-0.05
367.713	-0.04
368.072	0.02
368.432	-0.03
368.792	-0.05
369.151	0.03
369.511	0.09
369.87	0.1
370.23	0.19
370.589	0.16
370.949	0.19
371.308	0.25
371.667	0.22
372.027	0.24
372.386	0.24
372.745	0.19
373.104	0.18
373.463	0.07
373.822	0.01
374.181	0
374.54	0.07
374.899	-0
375.258	0.01
375.617	0.05
375.975	0.1
376.334	0.19
376.693	0.26
377.052	0.23
377.41	0.22
377.769	0.22
378.127	0.14
378.486	0.08
378.844	0.04
379.202	0.04
379.561	0.04
379.919	0.01
380.277	-0.03
380.636	-0.01
380.994	-0.03
381.352	-0.03
381.71	-0.01
382.068	0.06
382.426	0.09
382.784	0.15
383.142	0.21
383.5	0.16
383.857	0.23
384.215	0.24
384.573	0.19
384.931	0.17
385.288	0.18
385.646	0.08
386.003	0.06
386.361	0.12
386.718	0.17
387.076	0.2
387.433	0.2
387.791	0.23
388.148	0.24
388.505	0.18
388.862	0.23
389.22	0.25
389.577	0.19
389.934	0.22
390.291	0.23
390.648	0.2
391.005	0.17
391.362	0.07
391.718	0.03
392.075	-0.05
392.432	-0.05
392.789	-0.04
393.145	-0.07
393.502	-0.05
393.859	-0.09
394.215	-0.12
394.572	-0
394.928	0.05
395.285	-0.02
395.641	-0.03
395.997	0.01
396.354	0.07
396.71	0.08
397.066	0.08
397.422	0.14
397.778	0.11
398.134	0.11
398.491	0.19
398.846	0.16
399.202	0.14
399.558	0.24
399.914	0.25
400.27	0.3
400.626	0.29
400.981	0.37
401.337	0.41
401.693	0.41
402.048	0.41
402.404	0.44
402.759	0.52
403.115	0.6
403.47	0.56
403.826	0.6
404.181	0.61
404.536	0.61
404.892	0.64
405.247	0.59
405.602	0.59
405.957	0.57
406.312	0.6
406.667	0.68
407.022	0.68
407.377	0.67
407.732	0.67
408.087	0.66
408.442	0.74
408.796	0.69
409.151	0.78
409.506	0.9
409.86	0.84
410.215	0.87
410.57	0.85
410.924	0.85
411.279	0.86
411.633	0.87
411.987	0.81
412.342	0.85
412.696	0.76
413.05	0.87
413.404	0.84
413.758	0.83
414.113	0.85
414.467	0.84
414.821	0.92
415.175	1.02
415.529	1.02
415.882	1.1
416.236	1.09
416.59	1.23
416.944	1.32
417.298	1.3
417.651	1.36
418.005	1.33
418.358	1.36
418.712	1.44
419.065	1.42
419.419	1.45
419.772	1.51
420.126	1.47
420.479	1.54
420.832	1.62
421.185	1.61
421.539	1.77
421.892	1.71
422.245	1.79
422.598	1.86
422.951	1.84
423.304	1.89
423.657	1.79
424.01	1.76
424.363	1.8
424.715	1.73
425.068	1.78
425.421	1.7
425.773	1.67
426.126	1.69
426.479	1.71
426.831	1.71
427.184	1.74
427.536	1.73
427.889	1.8
428.241	1.89
428.593	1.94
428.945	2.08
429.298	2.04
429.65	2.07
430.002	2.21
430.354	2.18
430.706	2.2
431.058	2.2
431.41	2.2
431.762	2.32
432.114	2.29
432.466	2.41
432.817	2.48
433.169	2.4
433.521	2.52
433.872	2.5
434.224	2.46
434.576	2.54
434.927	2.52
435.279	2.58
435.63	2.65
435.981	2.63
436.333	2.69
436.684	2.67
437.035	2.63
437.387	2.63
437.738	2.56
438.089	2.5
438.44	2.42
438.791	2.32
439.142	2.23
439.493	2.33
439.844	2.3
440.195	2.28
440.545	2.2
440.896	2.31
441.247	2.26
441.598	2.16
441.948	2.31
442.299	2.3
442.649	2.28
443	2.31
443.35	2.31
443.701	2.27
444.051	2.26
444.401	2.28
444.752	2.24
445.102	2.17
445.452	2.22
445.802	2.23
446.152	2.32
446.502	2.37
446.852	2.43
447.202	2.5
447.552	2.54
447.902	2.68
448.252	2.63
448.602	2.72
448.952	2.73
449.301	2.79
449.651	2.7
450.001	2.76
450.35	2.8
450.7	2.78
451.049	2.87
451.399	3
451.748	3.14
452.097	3.15
452.447	3.2
452.796	3.18
453.145	3.21
453.494	3.19
453.843	3.31
454.193	3.39
454.542	3.49
454.891	3.39
455.239	3.26
455.588	3.31
455.937	3.28
456.286	3.26
456.635	3.28
456.984	3.31
457.332	3.29
457.681	3.41
458.03	3.53
458.378	3.72
458.727	3.76
459.075	3.84
459.423	3.86
459.772	3.94
460.12	3.97
460.468	4.05
460.817	4.17
461.165	4.22
461.513	4.16
461.861	4.13
462.209	4.16
462.557	4.14
462.905	4.07
463.253	4.04
463.601	4.1
463.949	4.29
464.297	4.28
464.644	4.43
464.992	4.46
465.34	4.48
465.687	4.45
466.035	4.43
466.383	4.41
466.73	4.42
467.078	4.32
467.425	4.29
467.772	4.26
468.12	4.23
468.467	4.11
468.814	4.13
469.161	3.95
469.508	3.76
469.856	3.79
470.203	3.91
470.55	3.9
470.897	3.91
471.243	3.93
471.59	3.83
471.937	3.8
472.284	3.77
472.631	3.71
472.977	3.72
473.324	3.63
473.671	3.66
474.017	3.53
474.364	3.52
474.71	3.51
475.057	3.53
475.403	3.4
475.749	3.51
476.096	3.54
476.442	3.55
476.788	3.55
477.134	3.51
477.48	3.54
477.826	3.56
478.172	3.62
478.518	3.57
478.864	3.54
479.21	3.56
479.556	3.59
479.902	3.59
480.248	3.73
480.593	3.72
480.939	3.77
481.285	3.78
481.63	3.76
481.976	3.75
482.321	3.8
482.667	3.89
483.012	3.99
483.357	4.15
483.703	4.17
484.048	4.38
484.393	4.34
484.738	4.44
485.084	4.51
485.429	4.64
485.774	4.85
486.119	4.92
486.464	5.11
486.808	5.3
487.153	5.52
487.498	5.81
487.843	6.11
488.188	6.36
488.532	6.68
488.877	6.97
489.222	7.46
489.566	7.78
489.911	8.18
490.255	8.69
490.6	9.21
490.944	9.63
491.288	10.14
491.633	10.62
491.977	11.07
492.321	11.61
492.665	11.97
493.009	12.59
493.353	13.18
493.697	13.81
494.041	14.49
494.385	15.14
494.729	15.84
495.073	16.49
495.417	17.16
495.76	17.9
496.104	18.63
496.448	19.34
496.791	20.19
497.135	20.93
497.479	21.72
497.822	22.36
498.165	23.24
498.509	24.19
498.852	25.01
499.196	25.88
499.539	26.79
499.882	27.54
500.225	28.43
500.568	29.26
500.911	30.04
501.254	31.01
501.597	31.89
501.94	32.66
502.283	33.58
502.626	34.42
502.969	35.16
503.312	35.96
503.654	36.83
503.997	37.86
504.34	38.64
504.682	39.48
505.025	40.29
505.367	41.08
505.71	41.93
506.052	42.72
506.395	43.68
506.737	44.34
507.079	45.03
507.421	45.82
507.764	46.61
508.106	47.21
508.448	47.94
508.79	48.62
509.132	49.32
509.474	50.07
509.816	50.59
510.158	51.35
510.499	52.14
510.841	52.63
511.183	53.13
511.525	53.79
511.866	54.33
512.208	54.82
512.549	55.23
512.891	55.78
513.232	56.28
513.574	56.83
513.915	57.25
514.256	57.78
514.598	58.24
514.939	58.6
515.28	59.1
515.621	59.63
515.962	60.02
516.303	60.41
516.644	60.97
516.985	61.38
517.326	61.74
517.667	62.11
518.008	62.47
518.349	62.84
518.69	62.98
519.03	63.21
519.371	63.64
519.712	63.93
520.052	64.19
520.393	64.65
520.733	64.94
521.074	65.26
521.414	65.58
521.754	65.9
522.095	66.14
522.435	66.5
522.775	66.79
523.115	67.31
523.455	67.5
523.795	67.75
524.135	67.96
524.475	68.33
524.815	68.7
525.155	68.81
525.495	69.1
525.835	69.48
526.175	69.57
526.514	69.71
526.854	70.03
527.194	70.16
527.533	70.19
527.873	70.23
528.212	70.39
528.552	70.49
528.891	70.67
529.23	70.83
529.57	70.94
529.909	70.94
530.248	70.94
530.587	70.99
530.927	71.07
531.266	71.05
531.605	71.02
531.944	71.29
532.283	71.46
532.621	71.56
532.96	71.5
533.299	71.41
533.638	71.61
533.977	71.64
534.315	71.58
534.654	71.7
534.992	71.73
535.331	71.7
535.67	71.86
536.008	72.07
536.346	72.17
536.685	72.31
537.023	72.54
537.361	72.53
537.7	72.62
538.038	72.64
538.376	72.82
538.714	72.98
539.052	73.11
539.39	73.18
539.728	73.37
540.066	73.29
540.404	73.34
540.741	73.46
541.079	73.26
541.417	73.44
541.755	73.71
542.092	73.65
542.43	73.85
542.767	73.95
543.105	74.03
543.442	74.1
543.78	74.16
544.117	74.09
544.454	74.11
544.792	74.29
545.129	74.38
545.466	74.15
545.803	74.28
546.14	74.44
546.477	74.61
546.814	74.67
547.151	74.67
547.488	74.75
547.825	74.84
548.162	74.91
548.499	75
548.835	75.04
549.172	74.91
549.509	75.06
549.845	74.85
550.182	74.63
550.518	74.64
550.855	74.51
551.191	74.59
551.528	74.91
551.864	74.98
552.2	75.19
552.537	75.37
552.873	75.42
553.209	75.44
553.545	75.44
553.881	75.76
554.217	75.74
554.553	75.65
554.889	75.73
555.225	75.9
555.561	75.96
555.896	75.87
556.232	75.96
556.568	75.91
556.903	75.98
557.239	76.03
557.575	76.12
557.91	76.11
558.245	76.22
558.581	76.35
558.916	76.46
559.252	76.54
559.587	76.42
559.922	76.12
560.257	76.29
560.592	76.19
560.928	76.22
561.263	76.43
561.598	76.28
561.933	76.25
562.267	76.06
562.602	76.05
562.937	76.16
563.272	76.23
563.607	76.21
563.941	76.2
564.276	76.55
564.611	76.51
564.945	76.46
565.28	76.54
565.614	76.47
565.949	76.52
566.283	76.67
566.617	76.78
566.951	76.87
567.286	77
567.62	77
567.954	76.99
568.288	77.08
568.622	77.02
568.956	77.12
569.29	77.07
569.624	77.06
569.958	76.97
570.292	77.03
570.626	77.1
570.959	77.12
571.293	77.12
571.627	77.04
571.96	76.89
572.294	77
572.627	76.93
572.961	76.97
573.294	77.06
573.627	77.08
573.961	77.16
574.294	77.08
574.627	76.99
574.961	76.95
575.294	77
575.627	76.98
575.96	76.98
576.293	76.88
576.626	76.8
576.959	76.77
577.292	76.7
577.624	76.68
577.957	76.68
578.29	76.78
578.623	76.74
578.955	76.73
579.288	76.62
579.62	76.71
579.953	76.73
580.285	76.74
580.618	76.74
580.95	76.62
581.282	76.6
581.615	76.65
581.947	76.69
582.279	76.64
582.611	76.76
582.943	76.9
583.275	77
583.607	76.87
583.939	76.78
584.271	76.85
584.603	77.18
584.935	77.31
585.267	77.43
585.598	77.5
585.93	77.79
586.262	77.72
586.593	77.8
586.925	77.88
587.256	78.02
587.588	78.18
587.919	78.04
588.25	78.17
588.582	78.15
588.913	78.03
589.244	78.11
589.575	78.13
589.907	78.09
590.238	78.01
590.569	78.11
590.9	78.15
591.231	78.09
591.562	77.96
591.892	77.97
592.223	78.08
592.554	78.05
592.885	78
593.215	77.77
593.546	77.66
593.877	77.48
594.207	77.17
594.538	77.37
594.868	77.34
595.198	77.44
595.529	77.29
595.859	77.32
596.189	77.37
596.52	77.16
596.85	77.39
597.18	77.58
597.51	77.7
597.84	77.66
598.17	77.54
598.5	77.6
598.83	77.42
599.16	77.32
599.489	77.25
599.819	77.33
600.149	77.46
600.479	77.46
600.808	77.38
601.138	77.21
601.467	77.25
601.797	77.34
602.126	77.39
602.456	77.5
602.785	77.09
603.114	77.11
603.443	77.12
603.773	77.32
604.102	77.38
604.431	77.44
604.76	77.53
605.089	77.54
605.418	77.35
605.747	77.15
606.076	77.11
606.405	77.14
606.733	77.17
607.062	77.14
607.391	77.09
607.72	76.96
608.048	76.97
608.377	76.73
608.705	76.59
609.034	76.65
609.362	76.62
609.69	76.77
610.019	76.67
610.347	76.68
610.675	76.65
611.004	76.62
611.332	76.68
611.66	76.51
611.988	76.34
612.316	76.35
612.644	76.24
612.972	76.09
613.3	76.01
613.627	75.89
613.955	76
614.283	76.03
614.611	75.93
614.938	75.77
615.266	75.89
615.593	76.2
615.921	76.49
616.248	76.46
616.576	76.67
616.903	76.88
617.23	76.94
617.558	77.1
617.885	77.39
618.212	77.36
618.539	77.28
618.866	77.41
619.193	77.85
619.52	77.46
619.847	77.19
620.174	77.28
620.501	76.64
620.828	76.44
621.155	76.33
621.481	76.34
621.808	76.63
622.135	76.6
622.461	76.77
622.788	77.08
623.114	77.3
623.441	77.2
623.767	76.9
624.093	76.97
624.42	77.01
624.746	77.19
625.072	77.36
625.398	77.17
625.725	77.14
626.051	76.81
626.377	76.95
626.703	77.38
627.029	77.34
627.354	77.27
627.68	77.56
628.006	78.01
628.332	77.63
628.658	78.08
628.983	78.49
629.309	78.76
629.634	78.6
629.96	78.61
630.285	78.83
630.611	78.3
630.936	78.35
631.262	78
631.587	78.27
631.912	78.68
632.237	78.3
632.562	77.92
632.887	77.46
633.213	76.97
633.538	77.03
633.863	76.98
634.187	76.9
634.512	76.43
634.837	76.68
635.162	76.07
635.487	75.54
635.811	75.83
636.136	75.3
636.461	75.46
636.785	75.44
637.11	75.28
637.434	74.9
637.758	75
638.083	75.4
638.407	74.92
638.731	75.55
639.056	75.82
639.38	75.84
639.704	75.47
640.028	75.23
640.352	75.2
640.676	76.02
641	76.59
641.324	76.09
641.648	75.81
641.972	75.91
642.295	76.15
642.619	76.56
642.943	76.01
643.266	76.42
643.59	76.31
643.913	75.91
644.237	76.39
644.56	76.25
644.884	76.58
645.207	76.79
645.53	77.21
645.854	76.86
646.177	75.7
646.5	76.2
646.823	75.82
647.146	75.29
647.469	75.14
647.792	75.22
648.115	75.18
648.438	75.35
648.761	75.58
649.084	74.95
649.406	75.97
649.729	76.04
650.052	76.08
650.374	76.15
650.697	76.19
651.019	76.06
651.342	76.1
651.664	76.2
651.987	76.12
652.309	75.92
652.631	76.01
652.953	75.93
653.276	75.88
653.598	75.85
653.92	75.86
654.242	75.86
654.564	75.84
654.886	75.9
655.208	75.81
655.53	75.92
655.851	75.95
656.173	76.06
656.495	76.12
656.816	75.74
657.138	75.9
657.46	74.91
657.781	74.49
658.103	73.88
658.424	73.06
658.746	72.62
659.067	72.57
659.388	72.64
659.709	73.09
660.031	73.15
660.352	73.59
660.673	73.78
660.994	73.96
661.315	74.03
661.636	73.96
661.957	73.33
662.278	74.28
662.599	73.35
662.919	73.19
663.24	73.32
663.561	73
663.881	73.4
664.202	72.63
664.523	72.36
664.843	72.88
665.164	73.05
665.484	72.53
665.804	73.22
666.125	73.06
666.445	73.14
666.765	73.18
667.085	73.85
667.405	73.63
667.726	73.44
668.046	72.88
668.366	73.02
668.686	72.14
669.005	71.66
669.325	71.13
669.645	70.9
669.965	71.69
670.285	71.01
670.604	71.14
670.924	71.4
671.243	71.92
671.563	72.39
671.882	71.67
672.202	72.1
672.521	72.43
672.841	72.12
673.16	72.65
673.479	73.05
673.798	72.31
674.117	72.81
674.437	73.24
674.756	72.83
675.075	72.85
675.394	73.01
675.713	73.51
676.031	73.98
676.35	73.58
676.669	74.76
676.988	75.54
677.306	75.36
677.625	76.4
677.944	76.94
678.262	77.39
678.581	77.74
678.899	78.16
679.218	78.69
679.536	78.53
679.854	78.31
680.172	78.95
680.491	78.28
680.809	77.89
681.127	76.45
681.445	77.02
681.763	76.89
682.081	76.33
682.399	75.67
682.717	76.24
683.035	76.53
683.352	77.05
683.67	76.69
683.988	77.59
684.306	78.63
684.623	77.82
684.941	76.8
685.258	77.24
685.576	76.54
685.893	75.93
686.211	76.08
686.528	76.01
686.845	75.71
687.162	75.06
687.48	74.34
687.797	74.95
688.114	74.07
688.431	75.2
688.748	76.02
689.065	77.35
689.382	77.53
689.699	77.73
690.015	77.56
690.332	78.18
690.649	78.04
690.966	77.25
691.282	77
691.599	77.03
691.915	76.33
692.232	75.92
692.548	76.7
692.865	76.89
693.181	77.22
693.497	77.39
693.813	77.15
694.13	76.73
694.446	76.57
694.762	77.68
695.078	77.03
695.394	77.18
695.71	77.83
696.026	77.36
696.342	76.79
696.658	76.79
696.973	77.34
697.289	77.13
697.605	78.19
697.92	78.79
698.236	79.33
698.551	79.41
698.867	80.32
699.182	80.32
699.498	80.01
699.813	81.09
700.128	81.37
700.444	81.55
700.759	82.36
701.074	80.85
701.389	80.18
701.704	80.36
702.019	80.77
702.334	82.02
702.649	80.79
702.964	80.91
703.279	81.51
703.594	80.7
703.908	81.68
704.223	82.15
704.538	82.14
704.852	80.65
705.167	80.75
705.481	81.03
705.796	81.64
706.11	80.88
706.425	80.83
706.739	79.85
707.053	80.38
707.368	80.67
707.682	79.61
707.996	79.53
708.31	78.89
708.624	78.59
708.938	80.63
709.252	81.46
709.566	81.99
709.88	82.1
710.193	82.33
710.507	82.06
710.821	82.49
711.135	82.25
711.448	81.93
711.762	81.77
712.075	81.36
712.389	81.6
712.702	82.34
713.015	82.87
713.329	82.25
713.642	82.42
713.955	82.99
714.269	83.1
714.582	83.09
714.895	82.57
715.208	82.04
715.521	81.36
715.834	80.35
716.147	80.84
716.459	81.07
716.772	80.04
717.085	80.44
717.398	81.06
717.71	81.07
718.023	80.24
718.336	79.91
718.648	79.52
718.961	78.87
719.273	79.68
719.585	80
719.898	79.4
720.21	79.29
720.522	79.4
720.834	77.97
721.147	78.71
721.459	78.88
721.771	78.91
722.083	78.8
722.395	78.89
722.707	79.31
723.019	80.29
723.33	80.67
723.642	81.24
723.954	80.93
724.265	81.22
724.577	80.34
724.889	78.4
725.2	77.15
725.512	75.95
725.823	75.91
726.135	76.4
726.446	75.86
726.757	76.54
727.068	76.27
727.38	76.64
727.691	77.51
728.002	76.86
728.313	77.23
728.624	77.39
728.935	76.84
729.246	76.09
729.557	75.23
729.867	75.45
730.178	77.22
730.489	76.79
730.8	77.34
731.11	76.97
731.421	75.97
731.731	75.66
732.042	75.36
732.352	75.88
732.663	77.13
732.973	78.5
733.283	78.99
733.594	78.33
733.904	78.67
734.214	79.27
734.524	79.48
734.834	81.1
735.144	80.96
735.454	80.11
735.764	81.16
736.074	81.12
736.384	81.71
736.694	80.54
737.003	81.12
737.313	82.24
737.623	81.53
737.932	80.51
738.242	79.52
738.551	77.85
738.861	78.53
739.17	79.36
739.479	80.91
739.789	81.44
740.098	81.33
740.407	81.67
740.716	79.69
741.025	81.66
741.334	81.27
741.643	81.15
741.952	79.82
742.261	79.64
742.57	78.11
742.879	77.74
743.188	78.34
743.497	78.27
743.805	77.21
744.114	77.22
744.422	79.12
744.731	78.58
745.04	76.89
745.348	77.19
745.656	76.84
745.965	77.49
746.273	78.27
746.581	80.79
746.889	82.54
747.198	82.28
747.506	82.44
747.814	80.56
748.122	79.59
748.43	80.49
748.738	78.36
749.046	79.96
749.353	79.77
749.661	81.04
749.969	82.73
750.277	81.12
750.584	82.06
750.892	84.37
751.199	82.04
751.507	82.75
751.814	82.8
752.122	82.4
752.429	83.03
752.736	84.44
753.044	85.69
753.351	85.47
753.658	84.84
753.965	86.02
754.272	85.45
754.579	84.28
754.886	83.63
755.193	81.44
755.5	83.59
755.807	83.26
756.114	83.68
756.42	84.07
756.727	84.75
757.034	84.64
757.34	85.87
757.647	86.22
757.953	85.12
758.26	84.51
758.566	82.41
758.872	84.64
759.179	84.99
759.485	83.95
759.791	83.25
760.097	81.82
760.403	83.56
760.709	82.04
761.015	82.94
761.321	85.28
761.627	82.39
761.933	80.4
762.239	81.6
762.545	79.79
762.851	81.58
763.156	81.16
763.462	81.49
763.767	80.81
764.073	79.44
764.378	78.62
764.684	76.91
764.989	73.41
765.295	71.84
765.6	71.82
765.905	72.28
766.21	74.92
766.515	74.4
766.821	73.51
767.126	75.65
767.431	76.42
767.736	77.81
768.041	74.18
768.345	74.63
768.65	72.86
768.955	68.99
769.26	71.34
769.564	70.35
769.869	70.48
770.174	70.72
770.478	70.87
770.783	71.53
771.087	74.14
771.391	75.29
771.696	75.39
772	74.82
772.304	73.91
772.608	78.46
772.913	79.89
773.217	83.6
773.521	77.67
773.825	72.76
774.129	71.35
774.433	73.24
774.736	73.75
775.04	79.14
775.344	84.05
775.648	87.54
775.951	89.84
776.255	91.41
776.559	96.92
776.862	95.2
777.166	100.48
777.469	94.24
777.772	99.9
778.076	96.16
778.379	92.7
778.682	91.86
778.985	85.82
779.289	85.75
779.592	89.04
779.895	91.84
780.198	98.94
780.501	93.17
780.804	89.55
781.106	91.68
781.409	88.57
781.712	86.15
782.015	84.07
782.317	80.22
782.62	75.33
782.923	72.35
783.225	70.37
783.527	66.82
783.83	63.31
784.132	65.02
784.435	67.2
784.737	63.15
785.039	65.12
785.341	63.71
785.643	61.41
785.945	62.27
786.248	61.45
786.55	60.96
786.851	62.68
787.153	61.85
787.455	61.46
787.757	54.11
788.059	53.3
788.36	53.36
788.662	52.08
788.964	52.91
789.265	54.54
789.567	55.52
789.868	54.86
790.17	56.46
790.471	60.13
790.772	59.05
791.074	61.58
791.375	63.98
791.676	62.77
791.977	62.75
792.278	62.95
792.579	64.9
792.88	67.2
793.181	71.09
793.482	74.25
793.783	70.72
794.083	74.7
794.384	82.6
794.685	77.18
794.986	81.76
795.286	85.17
795.587	88.61
795.887	90.83
796.188	88.57
796.488	90.98
796.788	90.63
797.089	93.89
797.389	93.97
797.689	90.66
797.989	86.03
798.289	92.49
798.589	90.03
798.889	87.93
799.189	89.84
799.489	96.64
799.789	100.22
800.089	96.45
800.389	97.69
800.688	93.36
800.988	89.31
801.288	91.55
801.587	92.01
801.887	85.47
802.186	95.06
802.486	84.61
802.785	77.14
803.085	78.71
803.384	87.72
803.683	93.92
803.982	95.56
804.281	93.42
804.58	86.59
804.879	92.86
805.178	86.8
805.477	82.7
805.776	83.7
806.075	84.7
806.374	80.78
806.673	77.87
806.971	74.46
807.27	71.79
807.569	67.6
807.867	53.27
808.166	57.04
808.464	48.22
808.763	46.68
809.061	36.22
809.359	28.34
809.658	32.78
809.956	47.18
810.254	46.2
810.552	40.56
810.85	33.06
811.148	32.2
811.446	31.63
811.744	31.21
812.042	28.24
812.34	28.3
812.638	43.82
812.935	43.1
813.233	39.01
813.531	34.68
813.828	45.6
814.126	53.66
814.423	43.92
814.721	54.43
815.018	51.18
815.316	40.4
815.613	57.11
815.91	63.31
816.207	63.45
816.504	84.38
816.802	85.87
817.099	94.15
817.396	91.51
817.693	125.27
817.99	135.65
818.286	144.17
818.583	143.58
818.88	116.34
819.177	128.7
819.473	110.78
819.77	99.12
820.067	104.58
820.363	101.91
820.66	109.2
820.956	118.08
821.252	99.76
821.549	99.77
821.845	96.48
822.141	82.83
822.437	91.99
822.734	98.64
823.03	84.46
823.326	96.44
823.622	102.53
823.918	88.9
824.213	87.97
824.509	86.97
824.805	83.32
825.101	76.29
825.397	65.67
825.692	63.12
825.988	62.09
826.283	58.38
826.579	56.85
826.874	64.12
827.17	66.85
827.465	69.23
827.76	65.96
828.056	63.05
828.351	64.82
828.646	79.63
828.941	74.93
829.236	71.8
829.531	78.81
829.826	75.51
830.121	63.87
830.416	61.62
830.711	50.26
831.006	62.36
831.3	70.54
831.595	72.05
831.89	56.72
832.184	72.41
832.479	95.5
832.773	96.42
833.068	103.05
833.362	94.54
833.656	98.42
833.951	95.89
834.245	84.48
834.539	80.2
834.833	74.88
835.127	73.2
835.421	81.06
835.715	75.46
836.009	71.3
836.303	71.49
836.597	66.64
836.891	64.83
837.185	62.22
837.478	67.75
837.772	75.78
838.066	72.63
838.359	71.23
838.653	64.53
838.946	59.32
839.24	59.35
839.533	56.79
839.826	53.45
840.119	56.66
840.413	57.8
840.706	59.16
840.999	64.91
841.292	62.97
841.585	59.8
841.878	61.47
842.171	67.51
842.464	64.97
842.757	66.78
843.049	66.71
843.342	61.93
843.635	59.02
843.927	56.9
844.22	64.26
844.513	69.56
844.805	75.48
845.098	78.45
845.39	80.07
845.682	83.59
845.975	83.54
846.267	94.44
846.559	94.96
846.851	88.35
847.143	88.99
847.435	104.68
847.727	106.78
848.019	97.81
848.311	95.03
848.603	94.06
848.895	102.98
849.186	103.4
849.478	108.06
849.77	116.27
850.061	110.05
850.353	112.27
850.645	113.07
850.936	106.59
851.227	125.58
851.519	117.7
851.81	109.66
852.101	109.03
852.393	104.82
852.684	105.09
852.975	102.42
853.266	109.96
853.557	100.92
853.848	102.99
854.139	119.46
854.43	99.34
854.72	83.84
855.011	90.61
855.302	112.9
855.593	109.77
855.883	118.68
856.174	115.52
856.464	100.07
856.755	89.38
857.045	99.24
857.336	94.54
857.626	98.31
857.916	95.15
858.206	98.01
858.497	89.26
858.787	89.53
859.077	92.95
859.367	84.38
859.657	79.63
859.947	84.37
860.237	90.03
860.527	88.65
860.816	83.16
861.106	68.63
861.396	70.94
861.685	88.73
861.975	100.63
862.265	87.39
862.554	78.9
862.844	79.74
863.133	74.39
863.422	63.65
863.712	61.67
864.001	52.52
864.29	36.97
864.579	37.95
864.868	37.97
865.157	37.18
865.446	43.7
865.735	52.1
866.024	49.94
866.313	48.36
866.602	53.85
866.891	58.93
867.179	46.69
867.468	28.83
