Data from T1_Reflection__7__20-13-58-464.txt Node

Date: Wed Jun 02 20:13:58 CEST 2021
User: mabdelazizm
Spectrometer: FLMS18565
Trigger mode: 0
Integration Time (sec): 2.000000E0
Scans to average: 1
Electric dark correction enabled: true
Nonlinearity correction enabled: false
Boxcar width: 12
XAxis mode: Wavelengths
Number of Pixels in Spectrum: 2048
>>>>>Begin Spectral Data<<<<<
179.071	4.12
179.452	14.89
179.833	22.34
180.214	0.91
180.595	-27.53
180.977	-19.23
181.358	27.14
181.739	40.83
182.12	61.27
182.501	69.78
182.882	160.55
183.262	238
183.643	-364.63
184.024	-41.34
184.405	-13.98
184.786	-13.85
185.166	-11.77
185.547	-13.64
185.927	-7.12
186.308	1.81
186.689	0.12
187.069	-0.25
187.449	5.68
187.83	6.74
188.21	10.51
188.59	8.68
188.971	6.68
189.351	4.61
189.731	2.06
190.111	1.07
190.491	2.61
190.871	4.45
191.251	6.79
191.631	6.9
192.011	7.32
192.391	9.08
192.771	11
193.151	10.9
193.531	9.41
193.91	8.45
194.29	8.72
194.67	10.31
195.049	11.42
195.429	11.11
195.808	10.96
196.188	11.32
196.567	9.9
196.946	8.77
197.326	7.86
197.705	6.39
198.084	6.37
198.464	8.68
198.843	10.04
199.222	10.63
199.601	11.19
199.98	11.47
200.359	12.39
200.738	12
201.117	12.73
201.496	12.33
201.875	12.74
202.254	12.89
202.632	13.69
203.011	13.02
203.39	12.96
203.768	12.08
204.147	11.27
204.525	10.66
204.904	11.77
205.282	12.59
205.661	11.77
206.039	11.92
206.418	11.65
206.796	12.29
207.174	12.8
207.552	12.87
207.931	11.45
208.309	10.8
208.687	10.8
209.065	10.26
209.443	10.29
209.821	9.59
210.199	8.4
210.577	6.93
210.954	6.33
211.332	6.01
211.71	6.16
212.088	6.54
212.465	6.77
212.843	7.54
213.221	8.22
213.598	8.49
213.976	8.05
214.353	7.16
214.731	6.02
215.108	5.48
215.485	5.77
215.863	5.07
216.24	4.77
216.617	4.32
216.994	4.25
217.371	4.47
217.749	4.48
218.126	4.32
218.503	4.06
218.88	3.65
219.256	2.91
219.633	3.66
220.01	4.23
220.387	4.34
220.764	4.39
221.14	3.99
221.517	3.53
221.894	3.04
222.27	3.01
222.647	3.09
223.023	2.77
223.4	3.1
223.776	3.06
224.153	3.08
224.529	3.16
224.905	3.39
225.282	3.86
225.658	3.98
226.034	3.93
226.41	3.84
226.786	3.87
227.162	3.98
227.538	3.96
227.914	4.14
228.29	4.2
228.666	4.47
229.042	4.37
229.418	4.16
229.793	4.2
230.169	4.14
230.545	3.91
230.92	3.95
231.296	4.07
231.672	3.95
232.047	3.98
232.422	4.12
232.798	4.02
233.173	4.07
233.549	3.98
233.924	4.01
234.299	3.87
234.674	3.77
235.05	3.79
235.425	3.68
235.8	3.7
236.175	3.58
236.55	3.44
236.925	3.37
237.3	3.28
237.675	3.26
238.049	3.27
238.424	3.23
238.799	3.32
239.174	3.31
239.548	3.27
239.923	3.37
240.297	3.22
240.672	3.19
241.046	3.2
241.421	3.13
241.795	3.01
242.17	3.06
242.544	2.98
242.918	3.01
243.293	2.97
243.667	2.93
244.041	2.91
244.415	2.83
244.789	2.89
245.163	2.79
245.537	2.8
245.911	2.76
246.285	2.83
246.659	2.83
247.033	2.78
247.406	2.72
247.78	2.69
248.154	2.62
248.528	2.63
248.901	2.65
249.275	2.6
249.648	2.54
250.022	2.54
250.395	2.51
250.769	2.51
251.142	2.56
251.515	2.5
251.888	2.54
252.262	2.53
252.635	2.52
253.008	2.49
253.381	2.42
253.754	2.41
254.127	2.35
254.5	2.43
254.873	2.4
255.246	2.43
255.619	2.36
255.992	2.3
256.364	2.27
256.737	2.27
257.11	2.25
257.483	2.27
257.855	2.28
258.228	2.25
258.6	2.24
258.973	2.31
259.345	2.27
259.718	2.23
260.09	2.27
260.462	2.27
260.834	2.27
261.207	2.24
261.579	2.23
261.951	2.24
262.323	2.3
262.695	2.35
263.067	2.38
263.439	2.38
263.811	2.3
264.183	2.34
264.555	2.37
264.927	2.36
265.298	2.44
265.67	2.5
266.042	2.53
266.413	2.48
266.785	2.49
267.156	2.45
267.528	2.45
267.899	2.45
268.271	2.43
268.642	2.5
269.013	2.48
269.385	2.43
269.756	2.4
270.127	2.36
270.498	2.37
270.87	2.42
271.241	2.4
271.612	2.34
271.983	2.3
272.354	2.24
272.724	2.24
273.095	2.29
273.466	2.29
273.837	2.27
274.208	2.31
274.578	2.23
274.949	2.22
275.32	2.19
275.69	2.17
276.061	2.13
276.431	2.11
276.802	2.13
277.172	2.12
277.542	2.04
277.913	1.99
278.283	2.03
278.653	2.01
279.023	2.01
279.394	2.04
279.764	2.02
280.134	1.96
280.504	1.95
280.874	2
281.244	1.96
281.614	1.96
281.983	1.99
282.353	1.93
282.723	1.92
283.093	1.97
283.462	1.91
283.832	1.92
284.202	1.87
284.571	1.81
284.941	1.81
285.31	1.78
285.68	1.71
286.049	1.7
286.418	1.62
286.788	1.71
287.157	1.7
287.526	1.66
287.895	1.66
288.264	1.68
288.633	1.68
289.002	1.63
289.371	1.57
289.74	1.53
290.109	1.48
290.478	1.48
290.847	1.48
291.216	1.44
291.585	1.43
291.953	1.4
292.322	1.35
292.691	1.34
293.059	1.29
293.428	1.28
293.796	1.32
294.165	1.34
294.533	1.33
294.901	1.44
295.27	1.4
295.638	1.46
296.006	1.41
296.374	1.46
296.743	1.46
297.111	1.49
297.479	1.4
297.847	1.39
298.215	1.45
298.583	1.51
298.95	1.55
299.318	1.55
299.686	1.61
300.054	1.63
300.422	1.59
300.789	1.56
301.157	1.54
301.525	1.53
301.892	1.56
302.26	1.58
302.627	1.59
302.994	1.6
303.362	1.63
303.729	1.69
304.097	1.61
304.464	1.65
304.831	1.66
305.198	1.72
305.565	1.7
305.932	1.72
306.299	1.69
306.666	1.69
307.033	1.72
307.4	1.7
307.767	1.65
308.134	1.62
308.501	1.67
308.867	1.62
309.234	1.57
309.601	1.6
309.967	1.65
310.334	1.72
310.701	1.68
311.067	1.69
311.433	1.68
311.8	1.63
312.166	1.6
312.533	1.57
312.899	1.53
313.265	1.54
313.631	1.52
313.997	1.49
314.363	1.48
314.729	1.47
315.096	1.48
315.461	1.47
315.827	1.5
316.193	1.49
316.559	1.46
316.925	1.46
317.291	1.45
317.656	1.38
318.022	1.37
318.388	1.37
318.753	1.35
319.119	1.33
319.484	1.3
319.85	1.29
320.215	1.21
320.581	1.19
320.946	1.23
321.311	1.2
321.676	1.21
322.042	1.26
322.407	1.29
322.772	1.26
323.137	1.24
323.502	1.18
323.867	1.13
324.232	1.06
324.597	1.03
324.962	1.03
325.327	0.98
325.691	0.96
326.056	0.98
326.421	1.03
326.785	1.03
327.15	1.06
327.514	1.03
327.879	1.08
328.243	1.09
328.608	1.12
328.972	1.11
329.337	1.12
329.701	1.18
330.065	1.13
330.429	1.1
330.794	1.14
331.158	1.11
331.522	1.06
331.886	1.07
332.25	1.08
332.614	1.08
332.978	1.06
333.342	1.09
333.705	1.12
334.069	1.11
334.433	1.07
334.797	1.06
335.16	1.04
335.524	0.99
335.887	1.03
336.251	1.03
336.614	1.02
336.978	0.96
337.341	0.98
337.705	0.96
338.068	1.02
338.431	1.02
338.794	1.01
339.158	1.03
339.521	1.03
339.884	0.94
340.247	0.92
340.61	0.97
340.973	1
341.336	1.06
341.699	1.1
342.062	1.15
342.424	1.13
342.787	1.08
343.15	1.1
343.512	1.16
343.875	1.19
344.238	1.19
344.6	1.15
344.963	1.13
345.325	1.1
345.688	1.11
346.05	1.18
346.412	1.15
346.775	1.12
347.137	1.13
347.499	1.13
347.861	1.1
348.223	1.15
348.585	1.14
348.947	1.21
349.309	1.25
349.671	1.18
350.033	1.1
350.395	1.1
350.757	1.09
351.118	1.02
351.48	1.05
351.842	1.04
352.203	1.03
352.565	0.96
352.927	0.99
353.288	1.02
353.65	1.11
354.011	1.06
354.372	1.05
354.734	1.12
355.095	1.07
355.456	1.07
355.817	1.06
356.179	1.02
356.54	1.04
356.901	1.05
357.262	1
357.623	1.02
357.984	0.96
358.345	0.88
358.705	0.86
359.066	0.87
359.427	0.87
359.788	0.8
360.148	0.79
360.509	0.78
360.87	0.84
361.23	0.77
361.591	0.82
361.951	0.76
362.312	0.7
362.672	0.65
363.032	0.65
363.393	0.65
363.753	0.63
364.113	0.67
364.473	0.77
364.833	0.73
365.193	0.68
365.553	0.58
365.913	0.62
366.273	0.59
366.633	0.65
366.993	0.59
367.353	0.64
367.713	0.68
368.072	0.72
368.432	0.67
368.792	0.72
369.151	0.79
369.511	0.8
369.87	0.74
370.23	0.82
370.589	0.81
370.949	0.82
371.308	0.84
371.667	0.84
372.027	0.89
372.386	0.83
372.745	0.79
373.104	0.75
373.463	0.59
373.822	0.61
374.181	0.62
374.54	0.67
374.899	0.62
375.258	0.69
375.617	0.67
375.975	0.79
376.334	0.76
376.693	0.78
377.052	0.75
377.41	0.69
377.769	0.67
378.127	0.65
378.486	0.61
378.844	0.57
379.202	0.61
379.561	0.64
379.919	0.67
380.277	0.68
380.636	0.7
380.994	0.68
381.352	0.76
381.71	0.72
382.068	0.73
382.426	0.84
382.784	0.85
383.142	0.88
383.5	0.93
383.857	0.95
384.215	0.89
384.573	0.85
384.931	0.78
385.288	0.82
385.646	0.77
386.003	0.73
386.361	0.77
386.718	0.76
387.076	0.77
387.433	0.79
387.791	0.84
388.148	0.77
388.505	0.74
388.862	0.71
389.22	0.75
389.577	0.74
389.934	0.73
390.291	0.78
390.648	0.78
391.005	0.8
391.362	0.72
391.718	0.65
392.075	0.62
392.432	0.62
392.789	0.64
393.145	0.6
393.502	0.67
393.859	0.65
394.215	0.63
394.572	0.71
394.928	0.79
395.285	0.78
395.641	0.8
395.997	0.82
396.354	0.85
396.71	0.87
397.066	0.88
397.422	0.91
397.778	0.89
398.134	0.85
398.491	0.9
398.846	0.9
399.202	0.88
399.558	0.9
399.914	0.87
400.27	0.88
400.626	0.9
400.981	1
401.337	1.01
401.693	1
402.048	1.06
402.404	1.09
402.759	1.11
403.115	1.15
403.47	1.13
403.826	1.16
404.181	1.2
404.536	1.23
404.892	1.24
405.247	1.18
405.602	1.23
405.957	1.24
406.312	1.25
406.667	1.35
407.022	1.33
407.377	1.32
407.732	1.41
408.087	1.42
408.442	1.59
408.796	1.65
409.151	1.73
409.506	1.78
409.86	1.67
410.215	1.78
410.57	1.81
410.924	1.86
411.279	1.87
411.633	1.92
411.987	1.9
412.342	1.96
412.696	1.94
413.05	2.04
413.404	2.07
413.758	2.13
414.113	2.21
414.467	2.2
414.821	2.27
415.175	2.35
415.529	2.39
415.882	2.45
416.236	2.56
416.59	2.59
416.944	2.66
417.298	2.67
417.651	2.7
418.005	2.73
418.358	2.77
418.712	2.96
419.065	2.9
419.419	2.94
419.772	2.92
420.126	2.89
420.479	3.06
420.832	3.11
421.185	3.12
421.539	3.17
421.892	3.09
422.245	3.14
422.598	3.17
422.951	3.18
423.304	3.28
423.657	3.25
424.01	3.32
424.363	3.36
424.715	3.41
425.068	3.41
425.421	3.39
425.773	3.35
426.126	3.32
426.479	3.32
426.831	3.29
427.184	3.4
427.536	3.4
427.889	3.45
428.241	3.61
428.593	3.67
428.945	3.74
429.298	3.71
429.65	3.78
430.002	3.76
430.354	3.81
430.706	3.89
431.058	3.86
431.41	3.96
431.762	4.08
432.114	4
432.466	4.09
432.817	4.01
433.169	4.01
433.521	4.03
433.872	4.08
434.224	4.05
434.576	4.18
434.927	4.2
435.279	4.23
435.63	4.19
435.981	4.18
436.333	4.09
436.684	4.09
437.035	3.88
437.387	3.85
437.738	3.85
438.089	3.72
438.44	3.72
438.791	3.71
439.142	3.63
439.493	3.58
439.844	3.53
440.195	3.39
440.545	3.36
440.896	3.43
441.247	3.44
441.598	3.39
441.948	3.4
442.299	3.44
442.649	3.35
443	3.35
443.35	3.28
443.701	3.19
444.051	3.16
444.401	3.22
444.752	3.11
445.102	3.14
445.452	3.14
445.802	3.18
446.152	3.25
446.502	3.26
446.852	3.32
447.202	3.24
447.552	3.31
447.902	3.4
448.252	3.44
448.602	3.5
448.952	3.54
449.301	3.48
449.651	3.41
450.001	3.43
450.35	3.56
450.7	3.61
451.049	3.56
451.399	3.61
451.748	3.61
452.097	3.65
452.447	3.75
452.796	3.71
453.145	3.8
453.494	3.88
453.843	3.96
454.193	4.08
454.542	4.26
454.891	4.26
455.239	4.21
455.588	4.23
455.937	4.26
456.286	4.23
456.635	4.37
456.984	4.36
457.332	4.44
457.681	4.49
458.03	4.64
458.378	4.68
458.727	4.69
459.075	4.72
459.423	4.81
459.772	5
460.12	5.02
460.468	5.29
460.817	5.37
461.165	5.41
461.513	5.54
461.861	5.38
462.209	5.38
462.557	5.38
462.905	5.32
463.253	5.21
463.601	5.14
463.949	5.31
464.297	5.34
464.644	5.44
464.992	5.48
465.34	5.4
465.687	5.38
466.035	5.24
466.383	5.28
466.73	5.2
467.078	5.18
467.425	5.21
467.772	5.13
468.12	4.97
468.467	4.88
468.814	4.91
469.161	4.81
469.508	4.62
469.856	4.57
470.203	4.58
470.55	4.65
470.897	4.59
471.243	4.52
471.59	4.38
471.937	4.37
472.284	4.38
472.631	4.25
472.977	4.18
473.324	4.21
473.671	4.22
474.017	4.12
474.364	4.2
474.71	4.24
475.057	4.19
475.403	4.14
475.749	4.25
476.096	4.1
476.442	4.1
476.788	4.05
477.134	3.97
477.48	3.97
477.826	3.93
478.172	4.11
478.518	4.16
478.864	4.08
479.21	4.1
479.556	4.22
479.902	4.35
480.248	4.46
480.593	4.52
480.939	4.59
481.285	4.63
481.63	4.74
481.976	4.74
482.321	4.82
482.667	4.97
483.012	5.04
483.357	5.28
483.703	5.43
484.048	5.65
484.393	5.73
484.738	6.03
485.084	6.24
485.429	6.49
485.774	6.77
486.119	6.98
486.464	7.32
486.808	7.51
487.153	7.87
487.498	8.32
487.843	8.78
488.188	9.14
488.532	9.56
488.877	9.97
489.222	10.55
489.566	11.18
489.911	11.74
490.255	12.31
490.6	12.97
490.944	13.56
491.288	14.16
491.633	14.78
491.977	15.33
492.321	16
492.665	16.65
493.009	17.43
493.353	18.13
493.697	18.88
494.041	19.73
494.385	20.57
494.729	21.37
495.073	22.14
495.417	22.97
495.76	23.81
496.104	24.63
496.448	25.42
496.791	26.29
497.135	27.13
497.479	28.13
497.822	28.94
498.165	29.68
498.509	30.69
498.852	31.54
499.196	32.42
499.539	33.34
499.882	34.11
500.225	34.95
500.568	35.79
500.911	36.57
501.254	37.38
501.597	38.09
501.94	38.75
502.283	39.52
502.626	40.21
502.969	40.85
503.312	41.51
503.654	42.17
503.997	42.93
504.34	43.45
504.682	44.02
505.025	44.68
505.367	45.34
505.71	45.93
506.052	46.48
506.395	47.05
506.737	47.64
507.079	48.15
507.421	48.75
507.764	49.27
508.106	49.71
508.448	50.18
508.79	50.69
509.132	51.2
509.474	51.62
509.816	51.92
510.158	52.49
510.499	52.86
510.841	53.13
511.183	53.51
511.525	53.87
511.866	54.22
512.208	54.51
512.549	54.76
512.891	55.04
513.232	55.49
513.574	55.82
513.915	56.05
514.256	56.4
514.598	56.66
514.939	56.91
515.28	57.17
515.621	57.39
515.962	57.67
516.303	58.01
516.644	58.4
516.985	58.75
517.326	59.07
517.667	59.06
518.008	59.32
518.349	59.59
518.69	59.7
519.03	59.97
519.371	60.17
519.712	60.3
520.052	60.35
520.393	60.57
520.733	60.77
521.074	60.94
521.414	61.29
521.754	61.3
522.095	61.35
522.435	61.54
522.775	61.73
523.115	62.02
523.455	62.29
523.795	62.35
524.135	62.41
524.475	62.5
524.815	62.37
525.155	62.43
525.495	62.52
525.835	62.59
526.175	62.76
526.514	62.94
526.854	62.97
527.194	62.95
527.533	62.83
527.873	62.81
528.212	62.84
528.552	63.11
528.891	63.15
529.23	63.1
529.57	63.29
529.909	63.35
530.248	63.43
530.587	63.46
530.927	63.4
531.266	63.37
531.605	63.51
531.944	63.48
532.283	63.68
532.621	63.78
532.96	63.91
533.299	64.03
533.638	64.01
533.977	64.06
534.315	64.27
534.654	64.35
534.992	64.21
535.331	64.15
535.67	64.32
536.008	64.69
536.346	64.82
536.685	64.93
537.023	64.97
537.361	65.01
537.7	65.32
538.038	65.34
538.376	65.39
538.714	65.42
539.052	65.53
539.39	65.58
539.728	65.61
540.066	65.44
540.404	65.45
540.741	65.38
541.079	65.23
541.417	65.19
541.755	65.39
542.092	65.34
542.43	65.48
542.767	65.29
543.105	65.42
543.442	65.46
543.78	65.73
544.117	65.78
544.454	65.8
544.792	66.07
545.129	66.1
545.466	65.92
545.803	66.08
546.14	66
546.477	66.02
546.814	65.99
547.151	66.04
547.488	66.1
547.825	66.29
548.162	66.38
548.499	66.47
548.835	66.52
549.172	66.63
549.509	66.73
549.845	66.79
550.182	66.73
550.518	66.89
550.855	66.91
551.191	66.98
551.528	67.11
551.864	67.38
552.2	67.43
552.537	67.55
552.873	67.57
553.209	67.47
553.545	67.5
553.881	67.76
554.217	67.86
554.553	67.86
554.889	67.89
555.225	68.07
555.561	68.02
555.896	67.97
556.232	68.06
556.568	67.99
556.903	67.9
557.239	67.91
557.575	67.9
557.91	68.04
558.245	68.05
558.581	67.99
558.916	67.95
559.252	67.89
559.587	68
559.922	67.97
560.257	67.8
560.592	67.63
560.928	67.47
561.263	67.64
561.598	67.6
561.933	67.76
562.267	67.66
562.602	67.55
562.937	67.54
563.272	67.68
563.607	67.5
563.941	67.55
564.276	67.72
564.611	67.88
564.945	67.81
565.28	68.02
565.614	68.02
565.949	67.97
566.283	67.92
566.617	67.84
566.951	67.91
567.286	68.02
567.62	68.07
567.954	67.94
568.288	67.83
568.622	67.82
568.956	67.91
569.29	67.91
569.624	67.77
569.958	67.85
570.292	67.84
570.626	67.87
570.959	67.86
571.293	67.82
571.627	67.7
571.96	67.73
572.294	67.82
572.627	67.77
572.961	67.64
573.294	67.72
573.627	67.61
573.961	67.69
574.294	67.69
574.627	67.7
574.961	67.67
575.294	67.77
575.627	67.82
575.96	67.75
576.293	67.73
576.626	67.84
576.959	67.92
577.292	67.88
577.624	67.81
577.957	67.89
578.29	67.83
578.623	67.77
578.955	67.79
579.288	67.72
579.62	67.86
579.953	67.89
580.285	67.86
580.618	67.89
580.95	67.97
581.282	68.07
581.615	68.12
581.947	68.12
582.279	68.13
582.611	68.3
582.943	68.48
583.275	68.57
583.607	68.52
583.939	68.36
584.271	68.47
584.603	68.63
584.935	68.54
585.267	68.51
585.598	68.61
585.93	68.74
586.262	68.67
586.593	68.74
586.925	68.82
587.256	68.86
587.588	69.04
587.919	69.03
588.25	69.19
588.582	69.35
588.913	69.3
589.244	69.34
589.575	69.18
589.907	69.31
590.238	69.38
590.569	69.44
590.9	69.19
591.231	69.17
591.562	69.19
591.892	69.11
592.223	69.17
592.554	69.1
592.885	69.07
593.215	68.96
593.546	68.94
593.877	68.88
594.207	68.83
594.538	69.04
594.868	69.15
595.198	69.16
595.529	69.14
595.859	69.07
596.189	69.12
596.52	69.02
596.85	68.93
597.18	68.98
597.51	68.98
597.84	69.08
598.17	68.95
598.5	68.9
598.83	68.79
599.16	68.91
599.489	68.89
599.819	68.91
600.149	68.92
600.479	69.12
600.808	69.23
601.138	69.13
601.467	69.26
601.797	69.27
602.126	69.36
602.456	69.45
602.785	69.25
603.114	69.17
603.443	69.12
603.773	69.28
604.102	69.35
604.431	69.25
604.76	69.19
605.089	69.24
605.418	69.2
605.747	69.06
606.076	68.98
606.405	68.87
606.733	69
607.062	69.02
607.391	69.04
607.72	68.65
608.048	68.68
608.377	68.69
608.705	68.47
609.034	68.48
609.362	68.4
609.69	68.4
610.019	68.4
610.347	68.35
610.675	68.25
611.004	68.17
611.332	68.06
611.66	67.82
611.988	67.57
612.316	67.56
612.644	67.57
612.972	67.62
613.3	67.65
613.627	67.59
613.955	67.72
614.283	67.86
614.611	68.02
614.938	67.98
615.266	67.94
615.593	67.92
615.921	68.43
616.248	68.28
616.576	68.66
616.903	68.76
617.23	68.67
617.558	68.92
617.885	69.09
618.212	69.03
618.539	68.73
618.866	68.63
619.193	68.68
619.52	68.71
619.847	69.05
620.174	69.2
620.501	68.98
620.828	69
621.155	68.96
621.481	68.8
621.808	68.74
622.135	68.66
622.461	68.68
622.788	68.73
623.114	68.79
623.441	68.81
623.767	68.92
624.093	68.8
624.42	68.95
624.746	68.72
625.072	68.76
625.398	68.57
625.725	68.59
626.051	68.59
626.377	68.99
626.703	69.55
627.029	69.76
627.354	70.07
627.68	70.21
628.006	70.24
628.332	69.96
628.658	69.97
628.983	69.89
629.309	70.07
629.634	70.04
629.96	69.75
630.285	69.94
630.611	70.03
630.936	70.03
631.262	69.82
631.587	69.72
631.912	69.88
632.237	69.68
632.562	69.66
632.887	69.53
633.213	69.34
633.538	69.5
633.863	69.26
634.187	69.31
634.512	68.98
634.837	69.16
635.162	69.09
635.487	68.63
635.811	68.8
636.136	68.59
636.461	68.74
636.785	69.28
637.11	69.21
637.434	68.79
637.758	68.57
638.083	69.2
638.407	69.08
638.731	68.68
639.056	68.46
639.38	68.26
639.704	68.5
640.028	68.27
640.352	68.59
640.676	68.69
641	68.66
641.324	68.44
641.648	68.09
641.972	68.29
642.295	67.76
642.619	67.46
642.943	66.77
643.266	66.61
643.59	66.46
643.913	66.11
644.237	66.34
644.56	66.25
644.884	66.37
645.207	66.79
645.53	67.09
645.854	67.52
646.177	67.42
646.5	67.61
646.823	67.48
647.146	68.12
647.469	68.1
647.792	67.97
648.115	68.01
648.438	67.54
648.761	68.14
649.084	68.49
649.406	68.79
649.729	68.96
650.052	68.9
650.374	69.1
650.697	69.41
651.019	69.46
651.342	69.49
651.664	69.69
651.987	69.48
652.309	69.59
652.631	69.69
652.953	69.49
653.276	69.43
653.598	69.43
653.92	69.39
654.242	69.4
654.564	69.24
654.886	69.27
655.208	69.05
655.53	69.19
655.851	68.97
656.173	69.1
656.495	69.18
656.816	68.85
657.138	68.83
657.46	68.58
657.781	68.31
658.103	67.92
658.424	67.56
658.746	66.38
659.067	66.35
659.388	66.22
659.709	66.38
660.031	66.65
660.352	66.19
660.673	66.05
660.994	66.48
661.315	66.53
661.636	66.73
661.957	66.38
662.278	67.05
662.599	66.62
662.919	66.1
663.24	66.25
663.561	65.62
663.881	66.13
664.202	65.71
664.523	66.08
664.843	66.29
665.164	65.65
665.484	65.62
665.804	65.83
666.125	66.37
666.445	66.43
666.765	66.96
667.085	67.2
667.405	67.57
667.726	67.31
668.046	67.16
668.366	67.11
668.686	67.02
669.005	65.75
669.325	65.15
669.645	64.95
669.965	65.65
670.285	64.56
670.604	64.99
670.924	65.41
671.243	65.4
671.563	65.91
671.882	66.5
672.202	65.95
672.521	66.18
672.841	66.53
673.16	67.08
673.479	67.36
673.798	67.2
674.117	67.17
674.437	66.93
674.756	66.66
675.075	67.18
675.394	66.98
675.713	67.1
676.031	67.55
676.35	67.33
676.669	67.81
676.988	68.24
677.306	68.43
677.625	68.82
677.944	69.24
678.262	69.25
678.581	68.98
678.899	68.72
679.218	69.03
679.536	69
679.854	67.6
680.172	68.3
680.491	67.93
680.809	67.53
681.127	66.6
681.445	66.84
681.763	66.43
682.081	66.44
682.399	65.73
682.717	66.1
683.035	65.58
683.352	66.28
683.67	65.47
683.988	66.16
684.306	67.24
684.623	66.18
684.941	66.21
685.258	66.18
685.576	66.27
685.893	65.29
686.211	65.78
686.528	65.89
686.845	66.28
687.162	66.14
687.48	65.93
687.797	67.18
688.114	67.11
688.431	66.81
688.748	66.97
689.065	67.5
689.382	67.15
689.699	67.22
690.015	67.37
690.332	68.16
690.649	68.44
690.966	68.48
691.282	68.14
691.599	67.77
691.915	66.87
692.232	66.06
692.548	66.39
692.865	66.79
693.181	67.03
693.497	65.97
693.813	66.83
694.13	66.97
694.446	66.49
694.762	67.01
695.078	66.09
695.394	66.11
695.71	65.8
696.026	65.4
696.342	65.06
696.658	65.4
696.973	65.84
697.289	66.47
697.605	67.11
697.92	65.98
698.236	66.28
698.551	66.24
698.867	65.74
699.182	65.91
699.498	67.41
699.813	68.89
700.128	69.54
700.444	69.96
700.759	70.54
701.074	69.91
701.389	69.94
701.704	68.64
702.019	68.47
702.334	70.36
702.649	69.98
702.964	70.59
703.279	70.23
703.594	70.74
703.908	69.95
704.223	70.39
704.538	70.2
704.852	69.54
705.167	68.15
705.481	67.59
705.796	69.05
706.11	69.57
706.425	68.53
706.739	67.67
707.053	67.94
707.368	67.91
707.682	66.23
707.996	66.73
708.31	66.56
708.624	65.96
708.938	67.32
709.252	67.48
709.566	67.85
709.88	68.05
710.193	67.11
710.507	66.88
710.821	66.62
711.135	66.63
711.448	66.39
711.762	67.83
712.075	68
712.389	67.45
712.702	67.1
713.015	68.17
713.329	68.16
713.642	67.79
713.955	67.29
714.269	67.88
714.582	69.58
714.895	68.49
715.208	67.67
715.521	67.67
715.834	66.2
716.147	66.36
716.459	66.67
716.772	66.09
717.085	66.98
717.398	67.08
717.71	66.47
718.023	66.09
718.336	66
718.648	67.06
718.961	67.99
719.273	68.63
719.585	68.65
719.898	67.92
720.21	69.03
720.522	69.64
720.834	69.29
721.147	70.33
721.459	71.16
721.771	71.68
722.083	71.86
722.395	70.81
722.707	71.89
723.019	73.21
723.33	73.81
723.642	73.44
723.954	72.28
724.265	72.66
724.577	72.05
724.889	70.31
725.2	70.24
725.512	70.32
725.823	70.12
726.135	70.01
726.446	69.46
726.757	68.4
727.068	67.76
727.38	67.78
727.691	68.27
728.002	67.62
728.313	68.17
728.624	68.38
728.935	68.43
729.246	68.21
729.557	67.44
729.867	67.73
730.178	67.85
730.489	67.5
730.8	66.43
731.11	66.1
731.421	66.03
731.731	66.29
732.042	65.79
732.352	65.87
732.663	66.5
732.973	67.24
733.283	67.31
733.594	67.37
733.904	68.03
734.214	67.42
734.524	67.72
734.834	68.44
735.144	68.54
735.454	69.28
735.764	69.62
736.074	69.22
736.384	69.37
736.694	68.36
737.003	67.8
737.313	68.13
737.623	66.96
737.932	65.93
738.242	65.37
738.551	65.94
738.861	66.35
739.17	66.26
739.479	67.28
739.789	67.51
740.098	66.79
740.407	67.56
740.716	66.73
741.025	66.5
741.334	66.11
741.643	65.31
741.952	65.97
742.261	67.55
742.57	66.79
742.879	66.84
743.188	65.99
743.497	66.93
743.805	67.28
744.114	66.61
744.422	66.94
744.731	67.31
745.04	67.6
745.348	69.81
745.656	72.04
745.965	72.37
746.273	71.94
746.581	72.21
746.889	73.5
747.198	73.17
747.506	73.21
747.814	73.54
748.122	72.5
748.43	70.91
748.738	72.6
749.046	74.16
749.353	74.71
749.661	75.56
749.969	73.73
750.277	73
750.584	73.93
750.892	73.76
751.199	72.14
751.507	72.64
751.814	72.17
752.122	71.26
752.429	71.32
752.736	71.52
753.044	69.56
753.351	69.2
753.658	68.81
753.965	69.19
754.272	69.56
754.579	69.77
754.886	69.94
755.193	68.16
755.5	68.91
755.807	70.45
756.114	71.47
756.42	70.85
756.727	70.65
757.034	69.38
757.34	70.14
757.647	70.91
757.953	69.33
758.26	69.79
758.566	70.66
758.872	70.94
759.179	71.07
759.485	69.51
759.791	69.46
760.097	68.93
760.403	68.36
760.709	69.6
761.015	70.04
761.321	71.6
761.627	72.04
761.933	72.98
762.239	72.79
762.545	71.68
762.851	72.67
763.156	72.78
763.462	71.13
763.767	71.62
764.073	70.72
764.378	69.26
764.684	69.32
764.989	67.57
765.295	68.97
765.6	69.44
765.905	66.73
766.21	63.18
766.515	62.25
766.821	60.21
767.126	63.19
767.431	67.02
767.736	68.23
768.041	68.28
768.345	64.62
768.65	63.96
768.955	59.78
769.26	57.36
769.564	56.19
769.869	56.45
770.174	55.7
770.478	53.67
770.783	53.83
771.087	53.31
771.391	54.04
771.696	51.53
772	52.34
772.304	53.57
772.608	56.69
772.913	54.23
773.217	55.06
773.521	51.8
773.825	54.11
774.129	55.06
774.433	53.33
774.736	52.19
775.04	49.67
775.344	51.64
775.648	47.22
775.951	54.02
776.255	55.76
776.559	63.27
776.862	63.59
777.166	61.17
777.469	60.4
777.772	66.86
778.076	71.29
778.379	68.91
778.682	70.63
778.985	65.19
779.289	66.47
779.592	64.5
779.895	65.18
780.198	62.78
780.501	59.53
780.804	59.42
781.106	58.35
781.409	57.4
781.712	59.66
782.015	62.19
782.317	62.78
782.62	58.88
782.923	56.77
783.225	55.73
783.527	55.87
783.83	55.48
784.132	54.34
784.435	55.51
784.737	56.01
785.039	56.18
785.341	54.96
785.643	56.81
785.945	53.43
786.248	53.45
786.55	53.24
786.851	55.74
787.153	55.81
787.455	52.41
787.757	52.18
788.059	51.77
788.36	51.49
788.662	55.07
788.964	60.98
789.265	59.87
789.567	59.67
789.868	61.88
790.17	57.07
790.471	57.55
790.772	63.41
791.074	59.23
791.375	55.69
791.676	57.54
791.977	56.69
792.278	55.68
792.579	57.88
792.88	53.61
793.181	52.8
793.482	53.4
793.783	53.05
794.083	57.82
794.384	55.23
794.685	54.43
794.986	57.8
795.286	56.05
795.587	55.51
795.887	57.86
796.188	56.05
796.488	52.55
796.788	48.16
797.089	41.04
797.389	41.97
797.689	46.64
797.989	41.88
798.289	36.6
798.589	34.68
798.889	33.82
799.189	31.65
799.489	29.91
799.789	23.65
800.089	24.87
800.389	29.44
800.688	26.26
800.988	34.81
801.288	31.83
801.587	29.14
801.887	29.65
802.186	29.62
802.486	21.7
802.785	13.46
803.085	17.67
803.384	18.92
803.683	19.8
803.982	23.41
804.281	24.69
804.58	42.46
804.879	39.66
805.178	37.39
805.477	43.87
805.776	51.66
806.075	57.18
806.374	66.91
806.673	68.12
806.971	66.59
807.27	66.76
807.569	56.55
807.867	62.29
808.166	62.37
808.464	49.86
808.763	48.09
809.061	43.46
809.359	32.06
809.658	37.23
809.956	55.18
810.254	56.41
810.552	49.35
810.85	40.92
811.148	33.16
811.446	34.45
811.744	38.12
812.042	23.83
812.34	11.39
812.638	16.79
812.935	-0.04
813.233	-11.09
813.531	-18.5
813.828	-42.78
814.126	-55.19
814.423	-50.51
814.721	-48.8
815.018	-38.6
815.316	-58.1
815.613	-51.87
815.91	-44.45
816.207	-23.14
816.504	-19.35
816.802	-18.68
817.099	-38.35
817.396	-66.64
817.693	-113.86
817.99	-59.18
818.286	-43.26
818.583	-21.77
818.88	-24.84
819.177	-30.16
819.473	5.28
819.77	24.41
820.067	27.49
820.363	41.08
820.66	62.67
820.956	75.73
821.252	71.6
821.549	83.69
821.845	84.79
822.141	82.51
822.437	90.86
822.734	85.19
823.03	78.74
823.326	80.41
823.622	92.44
823.918	89.83
824.213	88.36
824.509	86.93
824.805	79.45
825.101	82.66
825.397	79.39
825.692	64.12
825.988	70.59
826.283	74.59
826.579	75.67
826.874	84.37
827.17	85.23
827.465	79.89
827.76	74.95
828.056	56.96
828.351	49.05
828.646	47.69
828.941	45.13
829.236	42.55
829.531	47.3
829.826	47.81
830.121	39.99
830.416	36.14
830.711	32.94
831.006	27.32
831.3	24.67
831.595	17.85
831.89	22.24
832.184	29.5
832.479	14.25
832.773	14.38
833.068	32.9
833.362	25.07
833.656	21.86
833.951	26.25
834.245	18.91
834.539	32.82
834.833	35.44
835.127	28.24
835.421	36.49
835.715	40.72
836.009	45.38
836.303	50.51
836.597	42.53
836.891	41.37
837.185	35.62
837.478	39.37
837.772	40.24
838.066	38.6
838.359	38.06
838.653	35.09
838.946	35
839.24	38.83
839.533	35.34
839.826	42.55
840.119	41.26
840.413	44
840.706	45.49
840.999	50
841.292	50.19
841.585	55.54
841.878	49.69
842.171	51.63
842.464	55.74
842.757	65.35
843.049	61.62
843.342	52.69
843.635	48.72
843.927	48.99
844.22	44.42
844.513	51.35
844.805	54.94
845.098	57.56
845.39	52.25
845.682	50.35
845.975	46.3
846.267	50.42
846.559	45.92
846.851	46.63
847.143	45.49
847.435	50.92
847.727	49.04
848.019	43.82
848.311	35.6
848.603	32.92
848.895	29.53
849.186	32.77
849.478	16.49
849.77	17.04
850.061	-14.6
850.353	1
850.645	16.33
850.936	18.27
851.227	27.31
851.519	27.45
851.81	27.95
852.101	23.83
852.393	23.18
852.684	27.67
852.975	30.27
853.266	35.99
853.557	38.15
853.848	38.25
854.139	49.6
854.43	47.04
854.72	50.36
855.011	48.85
855.302	65.13
855.593	65.6
855.883	67.22
856.174	65.44
856.464	55.35
856.755	60.08
857.045	63.15
857.336	61.4
857.626	62.92
857.916	61.89
858.206	63.66
858.497	54.45
858.787	62.56
859.077	61.43
859.367	60.92
859.657	63.51
859.947	65.33
860.237	54.31
860.527	48.05
860.816	48.07
861.106	45.97
861.396	45.58
861.685	49.46
861.975	45.11
862.265	48.8
862.554	39.99
862.844	41.76
863.133	46.73
863.422	42.05
863.712	36.9
864.001	25.88
864.29	23.45
864.579	24.75
864.868	17.75
865.157	21.59
865.446	21.4
865.735	29.27
866.024	14.41
866.313	26.58
866.602	24.52
866.891	26.88
867.179	25.06
867.468	42.47
