Data from T1_Reflection__11__20-16-16-460.txt Node

Date: Wed Jun 02 20:16:16 CEST 2021
User: mabdelazizm
Spectrometer: FLMS18565
Trigger mode: 0
Integration Time (sec): 2.000000E0
Scans to average: 1
Electric dark correction enabled: true
Nonlinearity correction enabled: false
Boxcar width: 12
XAxis mode: Wavelengths
Number of Pixels in Spectrum: 2048
>>>>>Begin Spectral Data<<<<<
179.071	117.32
179.452	116.56
179.833	97.44
180.214	79.09
180.595	76.48
180.977	113.11
181.358	93.1
181.739	157.92
182.12	150.59
182.501	117.86
182.882	112.69
183.262	157
183.643	-129.88
184.024	8.89
184.405	29.35
184.786	31.75
185.166	33.22
185.547	29.02
185.927	18.94
186.308	25.93
186.689	21.73
187.069	17.75
187.449	21.01
187.83	18.93
188.21	25.54
188.59	22.64
188.971	20.67
189.351	17.01
189.731	14.27
190.111	12.96
190.491	13.53
190.871	12.77
191.251	14.72
191.631	13.64
192.011	13.94
192.391	13.61
192.771	14.42
193.151	13.42
193.531	12.66
193.91	9.06
194.29	7.24
194.67	8.32
195.049	9.08
195.429	9.77
195.808	9.04
196.188	9.54
196.567	8.46
196.946	8.29
197.326	7.75
197.705	5.92
198.084	5.27
198.464	5.78
198.843	5.83
199.222	7.63
199.601	8.68
199.98	8.64
200.359	9.53
200.738	10.17
201.117	10.33
201.496	9.07
201.875	9.59
202.254	9.44
202.632	8.52
203.011	8.37
203.39	10.34
203.768	9.63
204.147	9.43
204.525	8.3
204.904	9.26
205.282	9.43
205.661	8.95
206.039	9.02
206.418	8.15
206.796	9.18
207.174	8.98
207.552	10.22
207.931	9.61
208.309	10.22
208.687	9.19
209.065	8.4
209.443	8.24
209.821	7.79
210.199	6.59
210.577	5.8
210.954	5.49
211.332	4.86
211.71	4.8
212.088	5.9
212.465	5.78
212.843	5.24
213.221	5.78
213.598	5.74
213.976	6.37
214.353	5.8
214.731	5.3
215.108	5.49
215.485	5.94
215.863	5.81
216.24	4.95
216.617	4.83
216.994	4.67
217.371	4.72
217.749	4.13
218.126	4.14
218.503	4.15
218.88	4.32
219.256	3.77
219.633	3.72
220.01	3.72
220.387	3.82
220.764	3.98
221.14	3.98
221.517	3.67
221.894	3.44
222.27	3.19
222.647	3.19
223.023	3.01
223.4	3.1
223.776	2.76
224.153	2.87
224.529	2.5
224.905	2.65
225.282	2.71
225.658	2.64
226.034	2.75
226.41	2.62
226.786	2.88
227.162	3.03
227.538	2.84
227.914	2.84
228.29	2.69
228.666	2.7
229.042	2.59
229.418	2.71
229.793	2.77
230.169	2.75
230.545	2.45
230.92	2.55
231.296	2.51
231.672	2.45
232.047	2.48
232.422	2.49
232.798	2.23
233.173	2.3
233.549	2.14
233.924	2.26
234.299	2.26
234.674	2.14
235.05	2.24
235.425	2.08
235.8	2.16
236.175	2.03
236.55	1.99
236.925	2.04
237.3	1.97
237.675	1.93
238.049	1.99
238.424	1.95
238.799	1.87
239.174	1.82
239.548	1.82
239.923	1.78
240.297	1.6
240.672	1.58
241.046	1.59
241.421	1.59
241.795	1.53
242.17	1.59
242.544	1.58
242.918	1.67
243.293	1.64
243.667	1.55
244.041	1.57
244.415	1.48
244.789	1.46
245.163	1.39
245.537	1.39
245.911	1.36
246.285	1.36
246.659	1.39
247.033	1.47
247.406	1.37
247.78	1.39
248.154	1.45
248.528	1.46
248.901	1.43
249.275	1.5
249.648	1.51
250.022	1.5
250.395	1.49
250.769	1.49
251.142	1.53
251.515	1.54
251.888	1.55
252.262	1.47
252.635	1.44
253.008	1.49
253.381	1.51
253.754	1.54
254.127	1.61
254.5	1.61
254.873	1.62
255.246	1.65
255.619	1.58
255.992	1.56
256.364	1.47
256.737	1.52
257.11	1.57
257.483	1.53
257.855	1.54
258.228	1.57
258.6	1.58
258.973	1.57
259.345	1.52
259.718	1.53
260.09	1.54
260.462	1.48
260.834	1.43
261.207	1.34
261.579	1.39
261.951	1.4
262.323	1.37
262.695	1.32
263.067	1.31
263.439	1.23
263.811	1.2
264.183	1.2
264.555	1.23
264.927	1.23
265.298	1.26
265.67	1.27
266.042	1.21
266.413	1.09
266.785	1.13
267.156	1.11
267.528	1.08
267.899	1.08
268.271	1.04
268.642	1.1
269.013	1.1
269.385	1.09
269.756	1.11
270.127	1.1
270.498	1.17
270.87	1.19
271.241	1.14
271.612	1.14
271.983	1.14
272.354	1.17
272.724	1.21
273.095	1.22
273.466	1.2
273.837	1.13
274.208	1.1
274.578	1.04
274.949	1.1
275.32	1.11
275.69	1.15
276.061	1.08
276.431	1.03
276.802	1.04
277.172	1.05
277.542	1.04
277.913	1.03
278.283	1.02
278.653	1.01
279.023	0.98
279.394	1.02
279.764	1.02
280.134	0.99
280.504	1.04
280.874	1.07
281.244	1.07
281.614	1.02
281.983	1.01
282.353	1.02
282.723	1.03
283.093	1.06
283.462	1.08
283.832	1.08
284.202	1.03
284.571	1.03
284.941	1.06
285.31	1.01
285.68	0.96
286.049	0.93
286.418	0.89
286.788	0.97
287.157	0.99
287.526	0.94
287.895	0.9
288.264	0.97
288.633	0.95
289.002	0.92
289.371	0.91
289.74	0.86
290.109	0.88
290.478	0.88
290.847	0.89
291.216	0.85
291.585	0.83
291.953	0.78
292.322	0.76
292.691	0.75
293.059	0.75
293.428	0.77
293.796	0.79
294.165	0.72
294.533	0.74
294.901	0.82
295.27	0.81
295.638	0.85
296.006	0.81
296.374	0.8
296.743	0.83
297.111	0.83
297.479	0.76
297.847	0.75
298.215	0.74
298.583	0.71
298.95	0.75
299.318	0.7
299.686	0.67
300.054	0.66
300.422	0.69
300.789	0.66
301.157	0.65
301.525	0.68
301.892	0.67
302.26	0.65
302.627	0.62
302.994	0.62
303.362	0.7
303.729	0.79
304.097	0.79
304.464	0.82
304.831	0.84
305.198	0.83
305.565	0.82
305.932	0.87
306.299	0.9
306.666	0.92
307.033	0.94
307.4	0.95
307.767	0.94
308.134	0.96
308.501	0.97
308.867	1.02
309.234	1.04
309.601	1.02
309.967	1.06
310.334	1.07
310.701	1.04
311.067	1.04
311.433	1.09
311.8	1.05
312.166	1.03
312.533	1.03
312.899	1
313.265	0.94
313.631	0.92
313.997	0.89
314.363	0.92
314.729	0.91
315.096	0.91
315.461	0.86
315.827	0.85
316.193	0.92
316.559	0.89
316.925	0.9
317.291	0.83
317.656	0.83
318.022	0.79
318.388	0.74
318.753	0.75
319.119	0.76
319.484	0.8
319.85	0.78
320.215	0.79
320.581	0.72
320.946	0.74
321.311	0.73
321.676	0.68
322.042	0.65
322.407	0.67
322.772	0.67
323.137	0.64
323.502	0.65
323.867	0.61
324.232	0.56
324.597	0.59
324.962	0.64
325.327	0.63
325.691	0.66
326.056	0.64
326.421	0.72
326.785	0.7
327.15	0.72
327.514	0.72
327.879	0.77
328.243	0.69
328.608	0.7
328.972	0.7
329.337	0.74
329.701	0.79
330.065	0.81
330.429	0.74
330.794	0.79
331.158	0.87
331.522	0.85
331.886	0.87
332.25	0.89
332.614	0.84
332.978	0.83
333.342	0.83
333.705	0.81
334.069	0.74
334.433	0.67
334.797	0.64
335.16	0.62
335.524	0.58
335.887	0.59
336.251	0.53
336.614	0.48
336.978	0.42
337.341	0.5
337.705	0.52
338.068	0.54
338.431	0.48
338.794	0.45
339.158	0.41
339.521	0.41
339.884	0.37
340.247	0.27
340.61	0.34
340.973	0.3
341.336	0.31
341.699	0.37
342.062	0.37
342.424	0.34
342.787	0.34
343.15	0.35
343.512	0.34
343.875	0.39
344.238	0.44
344.6	0.34
344.963	0.3
345.325	0.31
345.688	0.37
346.05	0.38
346.412	0.37
346.775	0.27
347.137	0.27
347.499	0.32
347.861	0.32
348.223	0.4
348.585	0.5
348.947	0.49
349.309	0.45
349.671	0.36
350.033	0.38
350.395	0.37
350.757	0.33
351.118	0.4
351.48	0.47
351.842	0.43
352.203	0.47
352.565	0.45
352.927	0.4
353.288	0.35
353.65	0.45
354.011	0.44
354.372	0.53
354.734	0.53
355.095	0.52
355.456	0.47
355.817	0.52
356.179	0.5
356.54	0.46
356.901	0.5
357.262	0.39
357.623	0.4
357.984	0.38
358.345	0.37
358.705	0.42
359.066	0.37
359.427	0.44
359.788	0.42
360.148	0.3
360.509	0.23
360.87	0.29
361.23	0.2
361.591	0.19
361.951	0.19
362.312	0.17
362.672	0.12
363.032	0.11
363.393	0.01
363.753	0.03
364.113	-0
364.473	0.1
364.833	0.07
365.193	0.07
365.553	0.04
365.913	0.04
366.273	0.05
366.633	-0.02
366.993	-0.03
367.353	-0.04
367.713	-0.07
368.072	-0.08
368.432	-0.18
368.792	-0.2
369.151	-0.1
369.511	-0.06
369.87	-0.11
370.23	-0.09
370.589	-0.01
370.949	-0.01
371.308	0.12
371.667	0.12
372.027	0.21
372.386	0.26
372.745	0.26
373.104	0.28
373.463	0.17
373.822	0.15
374.181	0.09
374.54	0.1
374.899	0.04
375.258	0.04
375.617	0.05
375.975	0.06
376.334	0.13
376.693	0.18
377.052	0.24
377.41	0.23
377.769	0.2
378.127	0.09
378.486	0.08
378.844	0.06
379.202	0.11
379.561	0.04
379.919	0
380.277	-0.07
380.636	-0.02
380.994	-0.05
381.352	-0.03
381.71	-0.04
382.068	-0
382.426	0.02
382.784	0.11
383.142	0.16
383.5	0.21
383.857	0.25
384.215	0.27
384.573	0.28
384.931	0.31
385.288	0.3
385.646	0.22
386.003	0.15
386.361	0.18
386.718	0.24
387.076	0.29
387.433	0.25
387.791	0.28
388.148	0.25
388.505	0.26
388.862	0.33
389.22	0.32
389.577	0.31
389.934	0.35
390.291	0.35
390.648	0.28
391.005	0.26
391.362	0.22
391.718	0.12
392.075	0.09
392.432	0.11
392.789	0.1
393.145	0.14
393.502	0.15
393.859	0.06
394.215	0.05
394.572	0.08
394.928	0.11
395.285	0.05
395.641	0.04
395.997	0.02
396.354	0.12
396.71	0.07
397.066	0.04
397.422	0.08
397.778	0.02
398.134	0.03
398.491	0.04
398.846	-0.09
399.202	-0.03
399.558	0.08
399.914	0.1
400.27	0.07
400.626	0.04
400.981	0.11
401.337	0.08
401.693	0.08
402.048	0.05
402.404	0.09
402.759	0.19
403.115	0.26
403.47	0.26
403.826	0.39
404.181	0.45
404.536	0.47
404.892	0.54
405.247	0.5
405.602	0.57
405.957	0.64
406.312	0.6
406.667	0.7
407.022	0.75
407.377	0.75
407.732	0.82
408.087	0.77
408.442	0.89
408.796	0.88
409.151	1.04
409.506	1.11
409.86	1.04
410.215	1.08
410.57	1.15
410.924	1.22
411.279	1.21
411.633	1.25
411.987	1.31
412.342	1.44
412.696	1.37
413.05	1.44
413.404	1.54
413.758	1.64
414.113	1.75
414.467	1.83
414.821	1.95
415.175	2.11
415.529	2.2
415.882	2.24
416.236	2.35
416.59	2.51
416.944	2.66
417.298	2.7
417.651	2.75
418.005	2.77
418.358	2.93
418.712	3.23
419.065	3.38
419.419	3.43
419.772	3.56
420.126	3.7
420.479	3.93
420.832	4.02
421.185	4.11
421.539	4.3
421.892	4.39
422.245	4.48
422.598	4.61
422.951	4.71
423.304	4.81
423.657	4.88
424.01	5.07
424.363	5.26
424.715	5.47
425.068	5.65
425.421	5.83
425.773	5.96
426.126	6.08
426.479	6.3
426.831	6.47
427.184	6.72
427.536	6.85
427.889	7.1
428.241	7.4
428.593	7.55
428.945	7.81
429.298	8
429.65	8.19
430.002	8.38
430.354	8.58
430.706	8.77
431.058	8.97
431.41	9.2
431.762	9.42
432.114	9.64
432.466	9.91
432.817	10.13
433.169	10.25
433.521	10.54
433.872	10.72
434.224	10.89
434.576	11.11
434.927	11.32
435.279	11.53
435.63	11.7
435.981	11.8
436.333	11.97
436.684	12.04
437.035	12.18
437.387	12.29
437.738	12.35
438.089	12.32
438.44	12.43
438.791	12.55
439.142	12.64
439.493	12.79
439.844	12.85
440.195	13
440.545	13.13
440.896	13.32
441.247	13.42
441.598	13.48
441.948	13.62
442.299	13.67
442.649	13.78
443	13.85
443.35	13.9
443.701	13.95
444.051	13.98
444.401	14.11
444.752	14.21
445.102	14.28
445.452	14.37
445.802	14.33
446.152	14.48
446.502	14.65
446.852	14.83
447.202	14.92
447.552	15.11
447.902	15.32
448.252	15.4
448.602	15.51
448.952	15.62
449.301	15.71
449.651	15.77
450.001	15.84
450.35	15.88
450.7	15.98
451.049	16.06
451.399	16.29
451.748	16.42
452.097	16.54
452.447	16.74
452.796	16.89
453.145	17.08
453.494	17.08
453.843	17.14
454.193	17.35
454.542	17.64
454.891	17.81
455.239	17.8
455.588	17.96
455.937	18.11
456.286	18.07
456.635	18.21
456.984	18.29
457.332	18.61
457.681	18.76
458.03	19.01
458.378	19.14
458.727	19.27
459.075	19.44
459.423	19.74
459.772	19.93
460.12	20.05
460.468	20.38
460.817	20.64
461.165	20.7
461.513	20.93
461.861	20.99
462.209	21.29
462.557	21.47
462.905	21.53
463.253	21.61
463.601	21.61
463.949	21.85
464.297	21.93
464.644	21.98
464.992	22.31
465.34	22.44
465.687	22.61
466.035	22.64
466.383	22.58
466.73	22.55
467.078	22.64
467.425	22.75
467.772	22.82
468.12	22.73
468.467	22.72
468.814	22.7
469.161	22.55
469.508	22.37
469.856	22.35
470.203	22.25
470.55	22.18
470.897	22
471.243	21.95
471.59	21.81
471.937	21.74
472.284	21.72
472.631	21.7
472.977	21.63
473.324	21.66
473.671	21.52
474.017	21.28
474.364	21.23
474.71	21.11
475.057	21
475.403	20.92
475.749	20.91
476.096	20.86
476.442	20.91
476.788	20.92
477.134	20.92
477.48	20.9
477.826	20.91
478.172	21.07
478.518	21.14
478.864	21.2
479.21	21.28
479.556	21.39
479.902	21.52
480.248	21.78
480.593	21.82
480.939	21.99
481.285	22.04
481.63	22.17
481.976	22.28
482.321	22.46
482.667	22.7
483.012	22.89
483.357	23.19
483.703	23.48
484.048	23.82
484.393	24.05
484.738	24.4
485.084	24.6
485.429	24.85
485.774	25.15
486.119	25.45
486.464	25.8
486.808	25.99
487.153	26.33
487.498	26.74
487.843	27.2
488.188	27.62
488.532	27.98
488.877	28.33
489.222	28.91
489.566	29.3
489.911	29.69
490.255	30.27
490.6	30.72
490.944	31.05
491.288	31.55
491.633	31.96
491.977	32.29
492.321	32.66
492.665	32.93
493.009	33.37
493.353	33.74
493.697	34.16
494.041	34.64
494.385	35.11
494.729	35.52
495.073	35.98
495.417	36.49
495.76	36.89
496.104	37.26
496.448	37.71
496.791	38.12
497.135	38.54
497.479	39
497.822	39.33
498.165	39.93
498.509	40.54
498.852	40.88
499.196	41.44
499.539	42
499.882	42.38
500.225	42.93
500.568	43.47
500.911	44.04
501.254	44.72
501.597	45.22
501.94	45.7
502.283	46.3
502.626	46.8
502.969	47.36
503.312	47.88
503.654	48.42
503.997	49.08
504.34	49.57
504.682	50.2
505.025	50.67
505.367	51.31
505.71	51.97
506.052	52.6
506.395	53.3
506.737	53.73
507.079	54.22
507.421	54.84
507.764	55.33
508.106	55.8
508.448	56.36
508.79	56.8
509.132	57.4
509.474	57.84
509.816	58.21
510.158	58.75
510.499	59.2
510.841	59.55
511.183	60.04
511.525	60.28
511.866	60.65
512.208	60.9
512.549	61.2
512.891	61.69
513.232	61.98
513.574	62.44
513.915	62.7
514.256	63.05
514.598	63.32
514.939	63.6
515.28	63.93
515.621	64.22
515.962	64.52
516.303	64.85
516.644	65.24
516.985	65.47
517.326	65.8
517.667	65.82
518.008	66.14
518.349	66.4
518.69	66.45
519.03	66.64
519.371	66.96
519.712	67.12
520.052	67.36
520.393	67.62
520.733	67.91
521.074	68.06
521.414	68.3
521.754	68.55
522.095	68.58
522.435	68.89
522.775	69.15
523.115	69.36
523.455	69.47
523.795	69.58
524.135	69.69
524.475	69.91
524.815	70.02
525.155	69.95
525.495	70.07
525.835	70.26
526.175	70.52
526.514	70.67
526.854	70.77
527.194	70.87
527.533	70.87
527.873	70.98
528.212	70.91
528.552	71.02
528.891	71.16
529.23	71.18
529.57	71.18
529.909	71.21
530.248	71.19
530.587	71.24
530.927	71.18
531.266	70.94
531.605	71.06
531.944	71.06
532.283	71.23
532.621	71.24
532.96	71.31
533.299	71.37
533.638	71.72
533.977	71.72
534.315	71.76
534.654	71.82
534.992	71.62
535.331	71.69
535.67	71.66
536.008	71.73
536.346	71.69
536.685	71.87
537.023	72
537.361	72.05
537.7	72.27
538.038	72.39
538.376	72.49
538.714	72.62
539.052	72.78
539.39	72.7
539.728	72.86
540.066	72.97
540.404	73.11
540.741	73.04
541.079	73.02
541.417	72.96
541.755	73.03
542.092	72.95
542.43	73.12
542.767	73.08
543.105	73.04
543.442	73.21
543.78	73.07
544.117	73.11
544.454	73.32
544.792	73.3
545.129	73.38
545.466	73.16
545.803	73.18
546.14	73.13
546.477	73.23
546.814	73.17
547.151	73.05
547.488	72.9
547.825	73.09
548.162	73.19
548.499	73.19
548.835	73.23
549.172	73.22
549.509	73.28
549.845	73.17
550.182	73.17
550.518	73.17
550.855	73.07
551.191	73.1
551.528	73.11
551.864	73.24
552.2	73.52
552.537	73.71
552.873	73.74
553.209	73.83
553.545	73.81
553.881	74.14
554.217	74.16
554.553	74.15
554.889	74.11
555.225	74.33
555.561	74.4
555.896	74.45
556.232	74.4
556.568	74.32
556.903	74.2
557.239	74.14
557.575	74.12
557.91	74.29
558.245	74.5
558.581	74.42
558.916	74.58
559.252	74.74
559.587	74.84
559.922	74.72
560.257	74.76
560.592	74.56
560.928	74.52
561.263	74.4
561.598	74.26
561.933	74.34
562.267	74.22
562.602	74.3
562.937	74.09
563.272	74.28
563.607	74.07
563.941	74.04
564.276	74.51
564.611	74.67
564.945	74.78
565.28	74.7
565.614	74.89
565.949	75.13
566.283	75.1
566.617	74.99
566.951	75.06
567.286	75.14
567.62	75.09
567.954	75.06
568.288	75.17
568.622	74.88
568.956	74.89
569.29	74.86
569.624	74.91
569.958	74.94
570.292	74.9
570.626	74.86
570.959	74.88
571.293	75.08
571.627	75.04
571.96	75.11
572.294	75.17
572.627	74.99
572.961	74.93
573.294	74.82
573.627	74.92
573.961	74.98
574.294	74.89
574.627	74.8
574.961	74.88
575.294	75.03
575.627	74.9
575.96	74.9
576.293	74.81
576.626	74.81
576.959	74.88
577.292	74.94
577.624	74.94
577.957	74.92
578.29	74.91
578.623	74.87
578.955	74.93
579.288	74.74
579.62	74.63
579.953	74.59
580.285	74.5
580.618	74.48
580.95	74.49
581.282	74.54
581.615	74.67
581.947	74.67
582.279	74.54
582.611	74.51
582.943	74.67
583.275	74.63
583.607	74.51
583.939	74.48
584.271	74.36
584.603	74.43
584.935	74.35
585.267	74.43
585.598	74.4
585.93	74.51
586.262	74.44
586.593	74.44
586.925	74.53
587.256	74.59
587.588	74.67
587.919	74.57
588.25	74.57
588.582	74.64
588.913	74.66
589.244	74.67
589.575	74.68
589.907	74.79
590.238	74.76
590.569	74.78
590.9	74.91
591.231	74.73
591.562	74.72
591.892	74.6
592.223	74.62
592.554	74.72
592.885	74.69
593.215	74.66
593.546	74.56
593.877	74.54
594.207	74.32
594.538	74.49
594.868	74.61
595.198	74.69
595.529	74.54
595.859	74.65
596.189	74.85
596.52	74.86
596.85	74.95
597.18	75.04
597.51	75.03
597.84	75.05
598.17	74.77
598.5	74.67
598.83	74.55
599.16	74.41
599.489	74.43
599.819	74.43
600.149	74.45
600.479	74.6
600.808	74.7
601.138	74.71
601.467	74.92
601.797	75.1
602.126	75.25
602.456	75.38
602.785	75.2
603.114	75.14
603.443	74.97
603.773	75.07
604.102	74.99
604.431	75.04
604.76	74.96
605.089	74.85
605.418	74.73
605.747	74.65
606.076	74.53
606.405	74.47
606.733	74.68
607.062	74.8
607.391	74.96
607.72	74.86
608.048	74.76
608.377	74.55
608.705	74.38
609.034	74.22
609.362	74.02
609.69	74.02
610.019	73.98
610.347	73.76
610.675	73.69
611.004	73.55
611.332	73.5
611.66	73.39
611.988	73.37
612.316	73.4
612.644	73.32
612.972	73.4
613.3	73.44
613.627	73.34
613.955	73.38
614.283	73.34
614.611	73.48
614.938	73.17
615.266	72.94
615.593	72.64
615.921	72.77
616.248	72.65
616.576	73.15
616.903	72.96
617.23	73.01
617.558	73.31
617.885	73.18
618.212	73.05
618.539	73.14
618.866	73.34
619.193	73.68
619.52	73.52
619.847	73.55
620.174	73.48
620.501	73.38
620.828	73.13
621.155	72.97
621.481	72.87
621.808	72.88
622.135	72.86
622.461	72.81
622.788	72.74
623.114	72.8
623.441	73.13
623.767	73.25
624.093	73.33
624.42	73.62
624.746	73.48
625.072	73.74
625.398	73.69
625.725	73.86
626.051	73.63
626.377	73.85
626.703	73.74
627.029	73.75
627.354	73.66
627.68	73.78
628.006	74.04
628.332	73.82
628.658	73.96
628.983	74.07
629.309	74.41
629.634	74.08
629.96	74.53
630.285	74.27
630.611	74.71
630.936	75.15
631.262	75.47
631.587	75.18
631.912	75.4
632.237	75.43
632.562	75.51
632.887	75.65
633.213	75.58
633.538	75.87
633.863	75.66
634.187	75.83
634.512	75.69
634.837	75.92
635.162	75.92
635.487	75.32
635.811	75.9
636.136	75.68
636.461	75.78
636.785	75.86
637.11	75.94
637.434	75.46
637.758	76.04
638.083	75.93
638.407	76.37
638.731	76.03
639.056	75.52
639.38	74.87
639.704	74.83
640.028	74.84
640.352	74.76
640.676	74.85
641	74.29
641.324	73.69
641.648	73.09
641.972	73.08
642.295	72.82
642.619	72.5
642.943	72.32
643.266	72.39
643.59	72.87
643.913	72.5
644.237	72.51
644.56	72.42
644.884	72.65
645.207	73.11
645.53	73.45
645.854	73.34
646.177	73.03
646.5	73.18
646.823	72.82
647.146	73.24
647.469	73.41
647.792	73.46
648.115	73.25
648.438	73.31
648.761	73.39
649.084	73.84
649.406	74.69
649.729	74.76
650.052	74.73
650.374	74.84
650.697	74.92
651.019	74.82
651.342	74.68
651.664	74.67
651.987	74.54
652.309	74.69
652.631	74.8
652.953	74.5
653.276	74.39
653.598	74.49
653.92	74.4
654.242	74.23
654.564	74.05
654.886	74.32
655.208	74.28
655.53	74.32
655.851	74.28
656.173	74.56
656.495	74.6
656.816	74.61
657.138	74.27
657.46	73.7
657.781	73.25
658.103	72.79
658.424	72.46
658.746	71.63
659.067	71.55
659.388	71.87
659.709	72.23
660.031	72.05
660.352	71.74
660.673	72.03
660.994	72.47
661.315	72.9
661.636	72.37
661.957	72.04
662.278	72.85
662.599	72.28
662.919	71.13
663.24	71.3
663.561	71.54
663.881	72.22
664.202	71.32
664.523	71.68
664.843	71.57
665.164	72.4
665.484	71.7
665.804	72.42
666.125	72.78
666.445	72.59
666.765	73.4
667.085	73.3
667.405	72.77
667.726	72.73
668.046	73.15
668.366	73.19
668.686	72.99
669.005	72.35
669.325	71.56
669.645	71.66
669.965	72.42
670.285	71.88
670.604	72.37
670.924	72.61
671.243	73.09
671.563	72.89
671.882	72.58
672.202	72.56
672.521	72.52
672.841	72.82
673.16	72.89
673.479	73.2
673.798	72.34
674.117	72.17
674.437	72.7
674.756	72.41
675.075	73.21
675.394	73.01
675.713	73.02
676.031	72.71
676.35	72.52
676.669	72.74
676.988	73.21
677.306	73.01
677.625	73.09
677.944	73.18
678.262	73.13
678.581	73.61
678.899	74.32
679.218	73.48
679.536	73.46
679.854	72.53
680.172	73.08
680.491	72.61
680.809	71.8
681.127	70.83
681.445	71.43
681.763	71.88
682.081	71.33
682.399	71.05
682.717	71.03
683.035	71.08
683.352	72.1
683.67	71.84
683.988	72.36
684.306	72.9
684.623	71.98
684.941	71.51
685.258	71.56
685.576	71.22
685.893	70.11
686.211	70.13
686.528	69.93
686.845	69.15
687.162	70.14
687.48	70
687.797	70.74
688.114	70.59
688.431	70.51
688.748	71.67
689.065	72.09
689.382	72.31
689.699	73.05
690.015	73.32
690.332	74.34
690.649	74.64
690.966	74.34
691.282	73.74
691.599	73.82
691.915	73.96
692.232	73.58
692.548	73.77
692.865	75.02
693.181	75.57
693.497	75.7
693.813	76.51
694.13	77.11
694.446	76.71
694.762	77.06
695.078	75.89
695.394	75.61
695.71	76.25
696.026	75.69
696.342	75.54
696.658	74.98
696.973	74.8
697.289	74.59
697.605	74.23
697.92	74.16
698.236	73.63
698.551	72.89
698.867	72.59
699.182	72.62
699.498	72.28
699.813	72.32
700.128	71.98
700.444	71.89
700.759	71.81
701.074	70.98
701.389	70.28
701.704	70.39
702.019	70.17
702.334	71.27
702.649	70.63
702.964	71.33
703.279	72.34
703.594	72.13
703.908	71.77
704.223	71.71
704.538	71.49
704.852	71.69
705.167	69.98
705.481	69.77
705.796	70.47
706.11	69.88
706.425	69.31
706.739	68.49
707.053	69.29
707.368	69.31
707.682	68.18
707.996	68.93
708.31	69.43
708.624	69.21
708.938	70.35
709.252	70.97
709.566	71.08
709.88	71.59
710.193	71.07
710.507	71.93
710.821	71.49
711.135	70.47
711.448	70.09
711.762	70.8
712.075	71.55
712.389	71.49
712.702	71.73
713.015	72.9
713.329	72.51
713.642	73.79
713.955	74.32
714.269	75.78
714.582	76.44
714.895	75.89
715.208	75.93
715.521	76
715.834	74.18
716.147	74.57
716.459	74.22
716.772	74.35
717.085	74.09
717.398	74.01
717.71	73.04
718.023	73.66
718.336	73.36
718.648	74.17
718.961	75.67
719.273	76.65
719.585	77.35
719.898	76.63
720.21	76.6
720.522	76.45
720.834	76.89
721.147	78.03
721.459	76.04
721.771	75.97
722.083	75.77
722.395	74.96
722.707	75.89
723.019	75.87
723.33	75.43
723.642	75.38
723.954	74.74
724.265	75.13
724.577	74.44
724.889	73.28
725.2	72.34
725.512	72.04
725.823	72.86
726.135	72.84
726.446	71.36
726.757	69.78
727.068	68.09
727.38	67.23
727.691	67.3
728.002	67.86
728.313	68.34
728.624	67.28
728.935	65.96
729.246	65.46
729.557	65.37
729.867	65.4
730.178	66.59
730.489	66.27
730.8	66.07
731.11	66.65
731.421	67.68
731.731	67.79
732.042	67.54
732.352	67.25
732.663	68.35
732.973	69.47
733.283	69.53
733.594	67.73
733.904	67.97
734.214	68.55
734.524	69.44
734.834	70.77
735.144	72.39
735.454	72.76
735.764	72.52
736.074	72.03
736.384	73.07
736.694	73.58
737.003	73.87
737.313	74.08
737.623	72.19
737.932	71.7
738.242	70.18
738.551	69.92
738.861	69.67
739.17	68.94
739.479	68.55
739.789	69.44
740.098	68.26
740.407	69.51
740.716	69.61
741.025	71.47
741.334	72.77
741.643	72.14
741.952	72.09
742.261	71.68
742.57	71.22
742.879	68.88
743.188	68.44
743.497	68.07
743.805	69.07
744.114	67.67
744.422	68.27
744.731	68.09
745.04	66.62
745.348	69.08
745.656	70.19
745.965	71.62
746.273	73.03
746.581	74.58
746.889	75.73
747.198	76.66
747.506	74.9
747.814	74.66
748.122	72.85
748.43	70.73
748.738	69.8
749.046	70.87
749.353	72.68
749.661	71.45
749.969	70.97
750.277	69.45
750.584	71.95
750.892	73.87
751.199	74.29
751.507	75
751.814	75.58
752.122	74.86
752.429	75.31
752.736	75.31
753.044	74.24
753.351	74.13
753.658	73.93
753.965	73.05
754.272	73.51
754.579	73.96
754.886	73.15
755.193	72.19
755.5	74.86
755.807	74.06
756.114	74.34
756.42	73.42
756.727	72.26
757.034	71.45
757.34	74.92
757.647	75.27
757.953	74.39
758.26	72.63
758.566	72.01
758.872	71.47
759.179	70.46
759.485	70.35
759.791	70.28
760.097	70.53
760.403	71.98
760.709	72.44
761.015	71.3
761.321	73.33
761.627	74.83
761.933	72.89
762.239	71.93
762.545	71.59
762.851	74.04
763.156	73.1
763.462	71.96
763.767	71.8
764.073	70.34
764.378	67.73
764.684	65.42
764.989	61.58
765.295	61.26
765.6	61.44
765.905	60.66
766.21	60.9
766.515	60.29
766.821	58.16
767.126	59.17
767.431	59.96
767.736	58.68
768.041	55.84
768.345	54.71
768.65	53.49
768.955	49.98
769.26	46.57
769.564	48.51
769.869	49.36
770.174	49.44
770.478	47.25
770.783	47.61
771.087	49.08
771.391	49.31
771.696	48.83
772	50.61
772.304	52.42
772.608	54.54
772.913	56.21
773.217	59.32
773.521	60.43
773.825	54.97
774.129	53.21
774.433	55.74
774.736	53.92
775.04	55.22
775.344	62.05
775.648	66.56
775.951	72.16
776.255	77.57
776.559	83.16
776.862	84.47
777.166	87.34
777.469	81.37
777.772	87.61
778.076	86.06
778.379	81.32
778.682	82.54
778.985	81.84
779.289	85.14
779.592	84.66
779.895	88.26
780.198	87.99
780.501	85.12
780.804	83.75
781.106	83.78
781.409	83.23
781.712	86.69
782.015	86.92
782.317	83.14
782.62	77.07
782.923	77.44
783.225	76.51
783.527	74.98
783.83	71.32
784.132	68.99
784.435	72.7
784.737	67.4
785.039	67.16
785.341	62.95
785.643	59.73
785.945	61.7
786.248	61.01
786.55	59.51
786.851	61.45
787.153	60.5
787.455	52.84
787.757	48.69
788.059	45.78
788.36	44.27
788.662	45.43
788.964	49.57
789.265	48.26
789.567	48.7
789.868	50.42
790.17	53.27
790.471	47.98
790.772	47.77
791.074	43.38
791.375	43.95
791.676	45.65
791.977	40.02
792.278	38.18
792.579	39.15
792.88	35.38
793.181	36.92
793.482	35.75
793.783	35.04
794.083	33.85
794.384	26.24
794.685	23.56
794.986	29.99
795.286	30.94
795.587	31.72
795.887	27.52
796.188	28.23
796.488	26.67
796.788	26.19
797.089	19.67
797.389	22.42
797.689	25.74
797.989	28.52
798.289	20.81
798.589	26.58
798.889	22.03
799.189	21.61
799.489	27.93
799.789	25.86
800.089	25.39
800.389	31.2
800.688	29.16
800.988	28.86
801.288	25.52
801.587	28
801.887	31.89
802.186	35.21
802.486	31.55
802.785	31.49
803.085	33.57
803.384	40.46
803.683	32.38
803.982	28.41
804.281	21.88
804.58	35.19
804.879	34.41
805.178	24.69
805.477	21.12
805.776	27.91
806.075	10.6
806.374	15.74
806.673	8.69
806.971	4.06
807.27	10
807.569	-4.17
807.867	-9.93
808.166	-4.56
808.464	-12.67
808.763	-12.89
809.061	-19.14
809.359	-14.14
809.658	-1.78
809.956	11.52
810.254	13.78
810.552	7.29
810.85	11.42
811.148	9.32
811.446	12.03
811.744	19.69
812.042	9.51
812.34	-0.25
812.638	8.72
812.935	-0.31
813.233	7.39
813.531	16.21
813.828	18.34
814.126	22.31
814.423	32.85
814.721	34.85
815.018	54.15
815.316	45.87
815.613	47.89
815.91	60.01
816.207	60.52
816.504	65.08
816.802	63.22
817.099	58.62
817.396	49.83
817.693	65.16
817.99	79.04
818.286	80.2
818.583	87.44
818.88	73.86
819.177	98.09
819.473	96.31
819.77	81.52
820.067	80.02
820.363	72.28
820.66	74.76
820.956	84.25
821.252	71.66
821.549	72.75
821.845	66.55
822.141	63.72
822.437	65.83
822.734	65.84
823.03	66.25
823.326	76.82
823.622	76.22
823.918	70.69
824.213	66.79
824.509	71.01
824.805	68.39
825.101	68.44
825.397	69.22
825.692	62.29
825.988	63.8
826.283	67.78
826.579	56.13
826.874	47.88
827.17	45.78
827.465	49.09
827.76	47.87
828.056	47.03
828.351	37.18
828.646	40.67
828.941	42.48
829.236	33.97
829.531	41
829.826	38.44
830.121	35.57
830.416	23.12
830.711	4.15
831.006	8.68
831.3	6.91
831.595	-1.2
831.89	-14.05
832.184	2.98
832.479	-22.27
832.773	-40.95
833.068	-15.82
833.362	-4.36
833.656	-9
833.951	-1.25
834.245	19.97
834.539	28.65
834.833	34.76
835.127	36.61
835.421	42.69
835.715	42.91
836.009	46.22
836.303	44.43
836.597	41.56
836.891	36.98
837.185	33.45
837.478	42.74
837.772	52.32
838.066	55.95
838.359	57.25
838.653	56.7
838.946	60.69
839.24	59.82
839.533	45.39
839.826	44.08
840.119	41.49
840.413	43.26
840.706	38.03
840.999	33.04
841.292	32.35
841.585	27.59
841.878	30.85
842.171	26.93
842.464	22.57
842.757	19.43
843.049	19.01
843.342	15.72
843.635	12.2
843.927	8.48
844.22	2.33
844.513	7.19
844.805	-1.91
845.098	-6.5
845.39	-5.24
845.682	-3.24
845.975	-5.21
846.267	-3.53
846.559	-4.89
846.851	-1.97
847.143	6.16
847.435	5.55
847.727	-3.1
848.019	-11.07
848.311	-3.77
848.603	2.66
848.895	9.22
849.186	9.52
849.478	-3.82
849.77	0.92
850.061	-11.34
850.353	2.45
850.645	10.52
850.936	24.23
851.227	39.49
851.519	42.95
851.81	38.83
852.101	33.37
852.393	33.45
852.684	37.03
852.975	44.88
853.266	45.65
853.557	44.62
853.848	47.81
854.139	57.35
854.43	53.5
854.72	55.42
855.011	62.2
855.302	79.36
855.593	68.88
855.883	67.55
856.174	57.5
856.464	56.09
856.755	60.32
857.045	62.16
857.336	58.31
857.626	56.93
857.916	53.08
858.206	47.88
858.497	46.86
858.787	49.43
859.077	50.66
859.367	50.27
859.657	46.76
859.947	47.64
860.237	42.86
860.527	49.4
860.816	47.87
861.106	56.68
861.396	55.9
861.685	66.28
861.975	69.9
862.265	65.37
862.554	54.46
862.844	51.06
863.133	52.1
863.422	48
863.712	42.91
864.001	30.21
864.29	30.13
864.579	35.74
864.868	38.69
865.157	41.32
865.446	44.1
865.735	42.56
866.024	42.19
866.313	41.49
866.602	50.96
866.891	55.69
867.179	49.29
867.468	47.3
