Data from T1_Reflection__2__20-09-40-473.txt Node

Date: Wed Jun 02 20:09:40 CEST 2021
User: mabdelazizm
Spectrometer: FLMS18565
Trigger mode: 0
Integration Time (sec): 2.000000E0
Scans to average: 1
Electric dark correction enabled: true
Nonlinearity correction enabled: false
Boxcar width: 12
XAxis mode: Wavelengths
Number of Pixels in Spectrum: 2048
>>>>>Begin Spectral Data<<<<<
179.071	105.29
179.452	110.33
179.833	93.04
180.214	77.27
180.595	87.84
180.977	107.52
181.358	134.37
181.739	219.58
182.12	204.11
182.501	247.53
182.882	246.36
183.262	371
183.643	-638.82
184.024	-91.67
184.405	-32.79
184.786	-16.23
185.166	-15.46
185.547	-15.48
185.927	-17.48
186.308	-10.63
186.689	-13.6
187.069	-11.14
187.449	-3.58
187.83	-4.84
188.21	2.65
188.59	2.32
188.971	3.01
189.351	-0.72
189.731	-2.82
190.111	-3.21
190.491	-4.25
190.871	-1.85
191.251	0.03
191.631	-1.92
192.011	-1.51
192.391	-0.82
192.771	2.01
193.151	2.79
193.531	2.66
193.91	2.74
194.29	2.88
194.67	3.8
195.049	4.72
195.429	4.53
195.808	4.3
196.188	4.94
196.567	2.8
196.946	2.69
197.326	3.18
197.705	2.43
198.084	1.5
198.464	1.64
198.843	2.89
199.222	4.49
199.601	6.13
199.98	6.59
200.359	6.99
200.738	7.15
201.117	7.3
201.496	7.06
201.875	7.14
202.254	6.96
202.632	6.7
203.011	5.56
203.39	4.64
203.768	3.79
204.147	4.06
204.525	3.29
204.904	3.76
205.282	5.14
205.661	4.57
206.039	5.1
206.418	4.38
206.796	5.01
207.174	3.39
207.552	3.48
207.931	3.29
208.309	3.9
208.687	3
209.065	3.26
209.443	3.74
209.821	3.23
210.199	2.36
210.577	2.07
210.954	2.34
211.332	2.03
211.71	2.25
212.088	2.55
212.465	2.72
212.843	3.25
213.221	3.6
213.598	3.41
213.976	4.43
214.353	4.21
214.731	3.35
215.108	3.31
215.485	3.24
215.863	3.91
216.24	2.39
216.617	3.09
216.994	3.34
217.371	2.83
217.749	2.22
218.126	2.2
218.503	1.48
218.88	1.12
219.256	0.97
219.633	1.58
220.01	1.64
220.387	1.36
220.764	1.5
221.14	1.58
221.517	1.72
221.894	1.67
222.27	1.49
222.647	1.41
223.023	1.23
223.4	1.18
223.776	1.35
224.153	1.3
224.529	1
224.905	1.16
225.282	1.23
225.658	1.74
226.034	1.73
226.41	1.98
226.786	2.32
227.162	2.45
227.538	2.65
227.914	2.66
228.29	2.56
228.666	2.64
229.042	2.49
229.418	2.6
229.793	2.65
230.169	2.76
230.545	2.64
230.92	2.67
231.296	2.58
231.672	2.52
232.047	2.44
232.422	2.45
232.798	2.35
233.173	2.25
233.549	2.19
233.924	2.2
234.299	2.22
234.674	2.02
235.05	1.97
235.425	1.88
235.8	1.97
236.175	1.86
236.55	1.82
236.925	1.75
237.3	1.69
237.675	1.73
238.049	1.72
238.424	1.74
238.799	1.71
239.174	1.73
239.548	1.71
239.923	1.66
240.297	1.56
240.672	1.59
241.046	1.68
241.421	1.69
241.795	1.71
242.17	1.69
242.544	1.67
242.918	1.65
243.293	1.62
243.667	1.57
244.041	1.61
244.415	1.59
244.789	1.66
245.163	1.52
245.537	1.54
245.911	1.5
246.285	1.48
246.659	1.46
247.033	1.47
247.406	1.4
247.78	1.41
248.154	1.39
248.528	1.38
248.901	1.34
249.275	1.36
249.648	1.29
250.022	1.31
250.395	1.27
250.769	1.31
251.142	1.33
251.515	1.34
251.888	1.42
252.262	1.44
252.635	1.46
253.008	1.51
253.381	1.52
253.754	1.55
254.127	1.54
254.5	1.52
254.873	1.46
255.246	1.49
255.619	1.49
255.992	1.49
256.364	1.47
256.737	1.55
257.11	1.51
257.483	1.51
257.855	1.49
258.228	1.48
258.6	1.48
258.973	1.52
259.345	1.41
259.718	1.41
260.09	1.41
260.462	1.36
260.834	1.35
261.207	1.3
261.579	1.28
261.951	1.34
262.323	1.32
262.695	1.31
263.067	1.32
263.439	1.26
263.811	1.28
264.183	1.34
264.555	1.31
264.927	1.25
265.298	1.26
265.67	1.26
266.042	1.18
266.413	1.16
266.785	1.21
267.156	1.19
267.528	1.17
267.899	1.18
268.271	1.2
268.642	1.3
269.013	1.26
269.385	1.26
269.756	1.24
270.127	1.25
270.498	1.24
270.87	1.27
271.241	1.2
271.612	1.15
271.983	1.11
272.354	1.11
272.724	1.12
273.095	1.1
273.466	1.08
273.837	1.09
274.208	1.11
274.578	1.08
274.949	1.13
275.32	1.14
275.69	1.15
276.061	1.08
276.431	1.05
276.802	1.1
277.172	1.11
277.542	1.05
277.913	0.99
278.283	1.02
278.653	1.02
279.023	1.02
279.394	0.97
279.764	1
280.134	0.97
280.504	0.98
280.874	1.04
281.244	1.04
281.614	0.98
281.983	1.01
282.353	0.97
282.723	0.96
283.093	0.95
283.462	0.93
283.832	0.95
284.202	0.88
284.571	0.83
284.941	0.81
285.31	0.77
285.68	0.76
286.049	0.76
286.418	0.73
286.788	0.79
287.157	0.79
287.526	0.75
287.895	0.76
288.264	0.76
288.633	0.77
289.002	0.73
289.371	0.72
289.74	0.69
290.109	0.63
290.478	0.66
290.847	0.72
291.216	0.72
291.585	0.75
291.953	0.72
292.322	0.74
292.691	0.75
293.059	0.71
293.428	0.72
293.796	0.79
294.165	0.8
294.533	0.82
294.901	0.88
295.27	0.81
295.638	0.8
296.006	0.75
296.374	0.82
296.743	0.85
297.111	0.82
297.479	0.76
297.847	0.8
298.215	0.79
298.583	0.79
298.95	0.85
299.318	0.84
299.686	0.79
300.054	0.7
300.422	0.64
300.789	0.63
301.157	0.64
301.525	0.61
301.892	0.62
302.26	0.68
302.627	0.7
302.994	0.67
303.362	0.73
303.729	0.78
304.097	0.78
304.464	0.82
304.831	0.81
305.198	0.85
305.565	0.79
305.932	0.83
306.299	0.83
306.666	0.86
307.033	0.86
307.4	0.88
307.767	0.86
308.134	0.81
308.501	0.85
308.867	0.95
309.234	0.99
309.601	1.04
309.967	1.1
310.334	1.09
310.701	1.11
311.067	1.1
311.433	1.07
311.8	1.04
312.166	1
312.533	0.99
312.899	0.99
313.265	0.94
313.631	0.92
313.997	0.92
314.363	0.93
314.729	0.9
315.096	0.89
315.461	0.89
315.827	0.91
316.193	0.9
316.559	0.87
316.925	0.85
317.291	0.86
317.656	0.82
318.022	0.71
318.388	0.72
318.753	0.72
319.119	0.67
319.484	0.7
319.85	0.62
320.215	0.62
320.581	0.58
320.946	0.53
321.311	0.56
321.676	0.51
322.042	0.55
322.407	0.59
322.772	0.57
323.137	0.57
323.502	0.52
323.867	0.53
324.232	0.52
324.597	0.48
324.962	0.47
325.327	0.48
325.691	0.55
326.056	0.61
326.421	0.63
326.785	0.65
327.15	0.69
327.514	0.68
327.879	0.7
328.243	0.65
328.608	0.66
328.972	0.7
329.337	0.71
329.701	0.72
330.065	0.75
330.429	0.7
330.794	0.75
331.158	0.72
331.522	0.7
331.886	0.69
332.25	0.69
332.614	0.69
332.978	0.65
333.342	0.62
333.705	0.63
334.069	0.62
334.433	0.58
334.797	0.46
335.16	0.42
335.524	0.35
335.887	0.33
336.251	0.32
336.614	0.29
336.978	0.27
337.341	0.34
337.705	0.36
338.068	0.37
338.431	0.34
338.794	0.31
339.158	0.33
339.521	0.31
339.884	0.26
340.247	0.21
340.61	0.19
340.973	0.24
341.336	0.3
341.699	0.32
342.062	0.34
342.424	0.3
342.787	0.29
343.15	0.27
343.512	0.31
343.875	0.38
344.238	0.36
344.6	0.33
344.963	0.32
345.325	0.36
345.688	0.38
346.05	0.41
346.412	0.38
346.775	0.31
347.137	0.35
347.499	0.4
347.861	0.42
348.223	0.44
348.585	0.45
348.947	0.47
349.309	0.45
349.671	0.45
350.033	0.34
350.395	0.32
350.757	0.3
351.118	0.39
351.48	0.47
351.842	0.46
352.203	0.5
352.565	0.45
352.927	0.38
353.288	0.4
353.65	0.49
354.011	0.46
354.372	0.48
354.734	0.46
355.095	0.37
355.456	0.34
355.817	0.36
356.179	0.29
356.54	0.24
356.901	0.23
357.262	0.18
357.623	0.19
357.984	0.2
358.345	0.2
358.705	0.22
359.066	0.2
359.427	0.21
359.788	0.21
360.148	0.11
360.509	0.05
360.87	0.06
361.23	-0.04
361.591	-0.04
361.951	-0.07
362.312	-0.12
362.672	-0.18
363.032	-0.15
363.393	-0.23
363.753	-0.2
364.113	-0.16
364.473	-0.12
364.833	-0.16
365.193	-0.18
365.553	-0.18
365.913	-0.12
366.273	-0.11
366.633	-0.12
366.993	-0.22
367.353	-0.3
367.713	-0.37
368.072	-0.32
368.432	-0.39
368.792	-0.4
369.151	-0.35
369.511	-0.35
369.87	-0.36
370.23	-0.27
370.589	-0.22
370.949	-0.16
371.308	-0.08
371.667	-0.05
372.027	-0.06
372.386	-0.05
372.745	-0.1
373.104	-0.09
373.463	-0.19
373.822	-0.12
374.181	-0.07
374.54	-0.1
374.899	-0.19
375.258	-0.19
375.617	-0.15
375.975	-0.06
376.334	0.08
376.693	0.14
377.052	0.12
377.41	0.16
377.769	0.21
378.127	0.18
378.486	0.14
378.844	0.16
379.202	0.17
379.561	0.1
379.919	0.06
380.277	-0.01
380.636	0.02
380.994	0.02
381.352	0.02
381.71	-0
382.068	-0.03
382.426	0.05
382.784	0.06
383.142	0.06
383.5	0.07
383.857	0.15
384.215	0.11
384.573	0.03
384.931	0.03
385.288	-0.04
385.646	-0.05
386.003	-0.04
386.361	-0.06
386.718	-0.07
387.076	-0.1
387.433	-0.05
387.791	-0.07
388.148	-0.08
388.505	-0.02
388.862	0.04
389.22	0.04
389.577	-0.05
389.934	0.01
390.291	0.01
390.648	-0.06
391.005	-0.09
391.362	-0.13
391.718	-0.22
392.075	-0.27
392.432	-0.28
392.789	-0.31
393.145	-0.26
393.502	-0.17
393.859	-0.21
394.215	-0.21
394.572	-0.18
394.928	-0.12
395.285	-0.17
395.641	-0.16
395.997	-0.15
396.354	-0.1
396.71	-0.1
397.066	-0.13
397.422	-0.14
397.778	-0.16
398.134	-0.14
398.491	-0.02
398.846	-0.07
399.202	-0.09
399.558	0.01
399.914	0.12
400.27	0.11
400.626	0.12
400.981	0.16
401.337	0.18
401.693	0.22
402.048	0.21
402.404	0.24
402.759	0.22
403.115	0.29
403.47	0.24
403.826	0.28
404.181	0.37
404.536	0.36
404.892	0.4
405.247	0.3
405.602	0.32
405.957	0.34
406.312	0.27
406.667	0.34
407.022	0.39
407.377	0.34
407.732	0.37
408.087	0.45
408.442	0.51
408.796	0.42
409.151	0.53
409.506	0.56
409.86	0.54
410.215	0.65
410.57	0.57
410.924	0.6
411.279	0.56
411.633	0.63
411.987	0.58
412.342	0.71
412.696	0.61
413.05	0.64
413.404	0.69
413.758	0.73
414.113	0.8
414.467	0.88
414.821	0.97
415.175	1.14
415.529	1.11
415.882	1.02
416.236	1.07
416.59	1.15
416.944	1.2
417.298	1.22
417.651	1.32
418.005	1.3
418.358	1.38
418.712	1.43
419.065	1.42
419.419	1.47
419.772	1.51
420.126	1.51
420.479	1.62
420.832	1.69
421.185	1.74
421.539	1.88
421.892	1.85
422.245	1.87
422.598	1.94
422.951	1.97
423.304	1.91
423.657	1.87
424.01	1.94
424.363	2.06
424.715	2.24
425.068	2.29
425.421	2.27
425.773	2.3
426.126	2.28
426.479	2.29
426.831	2.22
427.184	2.32
427.536	2.35
427.889	2.44
428.241	2.64
428.593	2.69
428.945	2.89
429.298	2.96
429.65	3.06
430.002	3.07
430.354	3.06
430.706	3.17
431.058	3.18
431.41	3.24
431.762	3.4
432.114	3.48
432.466	3.53
432.817	3.58
433.169	3.54
433.521	3.66
433.872	3.75
434.224	3.84
434.576	3.9
434.927	4
435.279	4.11
435.63	4.25
435.981	4.26
436.333	4.34
436.684	4.4
437.035	4.31
437.387	4.3
437.738	4.25
438.089	4.12
438.44	4.12
438.791	4.15
439.142	4.15
439.493	4.22
439.844	4.21
440.195	4.16
440.545	4.16
440.896	4.24
441.247	4.27
441.598	4.19
441.948	4.24
442.299	4.18
442.649	4.18
443	4.15
443.35	4.14
443.701	4.04
444.051	3.98
444.401	4.08
444.752	4.02
445.102	4.04
445.452	4.02
445.802	4.02
446.152	4.13
446.502	4.23
446.852	4.39
447.202	4.4
447.552	4.4
447.902	4.47
448.252	4.38
448.602	4.44
448.952	4.48
449.301	4.54
449.651	4.5
450.001	4.62
450.35	4.67
450.7	4.68
451.049	4.76
451.399	4.71
451.748	4.79
452.097	4.88
452.447	5.02
452.796	5.08
453.145	5.12
453.494	5.13
453.843	5.19
454.193	5.37
454.542	5.45
454.891	5.5
455.239	5.47
455.588	5.41
455.937	5.39
456.286	5.36
456.635	5.44
456.984	5.5
457.332	5.61
457.681	5.78
458.03	5.83
458.378	5.96
458.727	6.01
459.075	6.16
459.423	6.38
459.772	6.49
460.12	6.68
460.468	6.9
460.817	7.01
461.165	7.1
461.513	7.11
461.861	7
462.209	7.18
462.557	7.23
462.905	7.15
463.253	7.15
463.601	7.15
463.949	7.19
464.297	7.33
464.644	7.39
464.992	7.55
465.34	7.54
465.687	7.55
466.035	7.54
466.383	7.41
466.73	7.4
467.078	7.42
467.425	7.38
467.772	7.33
468.12	7.14
468.467	7.05
468.814	6.91
469.161	6.74
469.508	6.55
469.856	6.41
470.203	6.41
470.55	6.42
470.897	6.3
471.243	6.26
471.59	6.09
471.937	6.04
472.284	5.98
472.631	5.9
472.977	5.8
473.324	5.71
473.671	5.66
474.017	5.54
474.364	5.59
474.71	5.5
475.057	5.48
475.403	5.39
475.749	5.37
476.096	5.32
476.442	5.3
476.788	5.33
477.134	5.21
477.48	5.29
477.826	5.28
478.172	5.36
478.518	5.44
478.864	5.39
479.21	5.4
479.556	5.48
479.902	5.6
480.248	5.74
480.593	5.77
480.939	5.88
481.285	5.95
481.63	6
481.976	6.1
482.321	6.22
482.667	6.37
483.012	6.46
483.357	6.66
483.703	6.84
484.048	7.07
484.393	7.19
484.738	7.42
485.084	7.61
485.429	7.82
485.774	8.12
486.119	8.31
486.464	8.62
486.808	8.87
487.153	9.22
487.498	9.62
487.843	10.1
488.188	10.48
488.532	10.8
488.877	11.3
489.222	11.91
489.566	12.44
489.911	13
490.255	13.68
490.6	14.36
490.944	14.87
491.288	15.56
491.633	16.18
491.977	16.79
492.321	17.41
492.665	18
493.009	18.77
493.353	19.49
493.697	20.24
494.041	21.06
494.385	21.83
494.729	22.63
495.073	23.4
495.417	24.16
495.76	24.98
496.104	25.8
496.448	26.58
496.791	27.57
497.135	28.47
497.479	29.25
497.822	30.01
498.165	30.78
498.509	31.67
498.852	32.51
499.196	33.41
499.539	34.33
499.882	34.98
500.225	35.77
500.568	36.51
500.911	37.37
501.254	38.26
501.597	39.04
501.94	39.73
502.283	40.52
502.626	41.28
502.969	42.05
503.312	42.85
503.654	43.5
503.997	44.31
504.34	44.87
504.682	45.63
505.025	46.26
505.367	46.85
505.71	47.47
506.052	48.1
506.395	48.86
506.737	49.49
507.079	50.09
507.421	50.76
507.764	51.3
508.106	51.83
508.448	52.43
508.79	52.94
509.132	53.57
509.474	54.01
509.816	54.35
510.158	54.83
510.499	55.27
510.841	55.67
511.183	56.04
511.525	56.42
511.866	56.71
512.208	57.14
512.549	57.49
512.891	57.87
513.232	58.17
513.574	58.6
513.915	58.9
514.256	59.29
514.598	59.67
514.939	59.89
515.28	60.2
515.621	60.37
515.962	60.53
516.303	60.7
516.644	61.05
516.985	61.37
517.326	61.81
517.667	61.96
518.008	62.13
518.349	62.37
518.69	62.52
519.03	62.67
519.371	62.94
519.712	63.09
520.052	63.25
520.393	63.44
520.733	63.63
521.074	63.8
521.414	64.19
521.754	64.39
522.095	64.48
522.435	64.61
522.775	64.81
523.115	65.09
523.455	65.18
523.795	65.24
524.135	65.42
524.475	65.76
524.815	65.98
525.155	66.01
525.495	66.11
525.835	66.12
526.175	66.15
526.514	66.31
526.854	66.48
527.194	66.47
527.533	66.53
527.873	66.41
528.212	66.53
528.552	66.66
528.891	66.8
529.23	66.81
529.57	66.88
529.909	66.68
530.248	66.61
530.587	66.61
530.927	66.65
531.266	66.55
531.605	66.6
531.944	66.78
532.283	67.04
532.621	67.19
532.96	67.12
533.299	67.03
533.638	67.15
533.977	67.18
534.315	67.19
534.654	67.43
534.992	67.37
535.331	67.42
535.67	67.48
536.008	67.61
536.346	67.71
536.685	67.75
537.023	67.87
537.361	67.8
537.7	67.88
538.038	67.89
538.376	68.18
538.714	68.39
539.052	68.55
539.39	68.58
539.728	68.83
540.066	68.69
540.404	68.62
540.741	68.52
541.079	68.38
541.417	68.34
541.755	68.74
542.092	68.79
542.43	68.86
542.767	68.95
543.105	68.87
543.442	68.93
543.78	69.02
544.117	69.16
544.454	69.4
544.792	69.55
545.129	69.58
545.466	69.35
545.803	69.56
546.14	69.56
546.477	69.78
546.814	69.71
547.151	69.75
547.488	69.76
547.825	69.78
548.162	69.75
548.499	69.81
548.835	69.94
549.172	69.98
549.509	70.15
549.845	70.15
550.182	69.89
550.518	69.8
550.855	69.86
551.191	69.96
551.528	70.1
551.864	70.14
552.2	70
552.537	70.07
552.873	69.99
553.209	69.89
553.545	69.94
553.881	70.2
554.217	70.31
554.553	70.49
554.889	70.51
555.225	70.58
555.561	70.4
555.896	70.36
556.232	70.5
556.568	70.55
556.903	70.64
557.239	70.56
557.575	70.48
557.91	70.37
558.245	70.37
558.581	70.51
558.916	70.64
559.252	70.64
559.587	70.47
559.922	70.44
560.257	70.43
560.592	70.39
560.928	70.47
561.263	70.56
561.598	70.69
561.933	70.66
562.267	70.66
562.602	70.56
562.937	70.43
563.272	70.47
563.607	70.33
563.941	70.65
564.276	70.76
564.611	70.68
564.945	70.62
565.28	70.66
565.614	70.85
565.949	70.86
566.283	71.19
566.617	71.21
566.951	71.26
567.286	71.24
567.62	71.22
567.954	71.4
568.288	71.32
568.622	71.39
568.956	71.43
569.29	71.35
569.624	71.24
569.958	71.24
570.292	71.27
570.626	71.3
570.959	71.22
571.293	71.19
571.627	71.14
571.96	71.22
572.294	71.16
572.627	71.27
572.961	71.31
573.294	71.34
573.627	71.42
573.961	71.36
574.294	71.43
574.627	71.33
574.961	71.33
575.294	71.27
575.627	71.37
575.96	71.35
576.293	71.28
576.626	71.28
576.959	71.24
577.292	71.31
577.624	71.16
577.957	71.29
578.29	71.18
578.623	71.2
578.955	71.14
579.288	71.2
579.62	71.28
579.953	71.31
580.285	71.29
580.618	71.29
580.95	71.15
581.282	71.16
581.615	71.27
581.947	71.3
582.279	71.3
582.611	71.32
582.943	71.37
583.275	71.37
583.607	71.33
583.939	71.24
584.271	71.24
584.603	71.47
584.935	71.56
585.267	71.64
585.598	71.62
585.93	71.95
586.262	71.78
586.593	71.99
586.925	72.04
587.256	72.1
587.588	72.18
587.919	72.14
588.25	72.19
588.582	72.24
588.913	72.21
589.244	72.27
589.575	72.2
589.907	72.13
590.238	71.87
590.569	71.99
590.9	72.15
591.231	72.23
591.562	72.21
591.892	72.38
592.223	72.48
592.554	72.49
592.885	72.18
593.215	72.13
593.546	72.15
593.877	72.03
594.207	71.85
594.538	71.97
594.868	71.91
595.198	71.88
595.529	71.94
595.859	71.89
596.189	71.98
596.52	71.88
596.85	71.9
597.18	71.97
597.51	72.08
597.84	72.15
598.17	72.08
598.5	72.15
598.83	72.01
599.16	71.81
599.489	71.67
599.819	71.62
600.149	71.45
600.479	71.38
600.808	71.32
601.138	71.48
601.467	71.4
601.797	71.4
602.126	71.51
602.456	71.47
602.785	71.25
603.114	71.2
603.443	71.13
603.773	71.24
604.102	71.22
604.431	71.13
604.76	71.23
605.089	71.24
605.418	71.24
605.747	71.01
606.076	70.98
606.405	70.81
606.733	70.97
607.062	71.11
607.391	71.02
607.72	70.9
608.048	71
608.377	71.13
608.705	70.95
609.034	71.07
609.362	70.84
609.69	70.76
610.019	70.68
610.347	70.58
610.675	70.4
611.004	70.41
611.332	70.51
611.66	70.36
611.988	69.96
612.316	69.78
612.644	70.01
612.972	69.88
613.3	69.79
613.627	69.64
613.955	69.76
614.283	69.63
614.611	69.71
614.938	69.35
615.266	69.1
615.593	69.05
615.921	69.2
616.248	69.11
616.576	69.25
616.903	69.43
617.23	69.56
617.558	69.77
617.885	70.21
618.212	70.21
618.539	70.11
618.866	70.51
619.193	70.49
619.52	70.14
619.847	70.27
620.174	70.6
620.501	70.57
620.828	70.29
621.155	69.99
621.481	69.78
621.808	69.71
622.135	69.57
622.461	69.69
622.788	70
623.114	70.22
623.441	70.16
623.767	70.4
624.093	70.24
624.42	70.17
624.746	70.01
625.072	69.94
625.398	69.52
625.725	69.33
626.051	68.94
626.377	69.34
626.703	69.67
627.029	69.72
627.354	70.01
627.68	70.27
628.006	70.31
628.332	70.09
628.658	70.59
628.983	70.49
629.309	71.16
629.634	71.25
629.96	71.45
630.285	71.59
630.611	71.89
630.936	71.69
631.262	71.5
631.587	71.54
631.912	71.95
632.237	72.19
632.562	72.53
632.887	72.7
633.213	72.62
633.538	72.92
633.863	72.79
634.187	72.68
634.512	72.11
634.837	72.23
635.162	72.19
635.487	71.5
635.811	71.84
636.136	71.4
636.461	71.34
636.785	70.95
637.11	70.95
637.434	70.26
637.758	70.33
638.083	70.5
638.407	70.12
638.731	69.59
639.056	69.92
639.38	69.92
639.704	70.34
640.028	69.95
640.352	69.44
640.676	69.11
641	68.66
641.324	67.99
641.648	67.64
641.972	67.78
642.295	67.59
642.619	67.52
642.943	66.84
643.266	66.94
643.59	67.51
643.913	66.8
644.237	67.05
644.56	66.55
644.884	66.69
645.207	66.84
645.53	67.27
645.854	67.3
646.177	66.54
646.5	66.74
646.823	66.39
647.146	66.41
647.469	66.51
647.792	66.24
648.115	66.15
648.438	66.58
648.761	67.14
649.084	67.74
649.406	69.24
649.729	69.47
650.052	69.71
650.374	70.02
650.697	70.23
651.019	70.34
651.342	70.28
651.664	70.34
651.987	70.41
652.309	70.44
652.631	70.72
652.953	70.59
653.276	70.52
653.598	70.28
653.92	70.33
654.242	70.38
654.564	70.29
654.886	70.58
655.208	70.42
655.53	70.3
655.851	70.21
656.173	70.42
656.495	70.39
656.816	70.27
657.138	70.24
657.46	68.85
657.781	68.3
658.103	67.06
658.424	66.03
658.746	64.46
659.067	64.28
659.388	64.44
659.709	64.35
660.031	63.98
660.352	63.76
660.673	62.86
660.994	63.15
661.315	63.81
661.636	64.09
661.957	63.38
662.278	63.94
662.599	64.1
662.919	63.75
663.24	63.71
663.561	63.76
663.881	64.36
664.202	63.54
664.523	63.17
664.843	63.76
665.164	63.8
665.484	63.77
665.804	64.14
666.125	64.44
666.445	64.53
666.765	65.48
667.085	65.37
667.405	64.59
667.726	64.03
668.046	63.46
668.366	63.91
668.686	64.11
669.005	64.12
669.325	63.75
669.645	63.94
669.965	64.51
670.285	63.4
670.604	63.35
670.924	63.02
671.243	63.45
671.563	63.57
671.882	63.02
672.202	62.86
672.521	63.17
672.841	62.84
673.16	63.15
673.479	63.77
673.798	62.67
674.117	62.47
674.437	62.53
674.756	62.03
675.075	62.68
675.394	62.32
675.713	62.82
676.031	63.19
676.35	63.33
676.669	64
676.988	63.98
677.306	63.98
677.625	64.55
677.944	64.4
678.262	65.79
678.581	66.32
678.899	66.9
679.218	66.91
679.536	66.94
679.854	66.74
680.172	67.24
680.491	67.21
680.809	67.25
681.127	66.93
681.445	67.45
681.763	67.8
682.081	67.61
682.399	68.1
682.717	68.52
683.035	68.19
683.352	69.01
683.67	68.97
683.988	69.49
684.306	69.28
684.623	68.46
684.941	68.33
685.258	68.04
685.576	67.4
685.893	67.89
686.211	67.48
686.528	67.53
686.845	67.85
687.162	67.46
687.48	67.56
687.797	67.74
688.114	67.44
688.431	67.42
688.748	67.2
689.065	67.45
689.382	67.59
689.699	68
690.015	68.8
690.332	68.32
690.649	68.61
690.966	68.17
691.282	68.44
691.599	68.35
691.915	68.83
692.232	69.06
692.548	69.6
692.865	69.22
693.181	69.46
693.497	69.62
693.813	69.45
694.13	69.14
694.446	67.76
694.762	67.33
695.078	67.55
695.394	66.82
695.71	67.22
696.026	66.73
696.342	66.62
696.658	66.64
696.973	65.72
697.289	65.58
697.605	65.62
697.92	65
698.236	65.19
698.551	64.39
698.867	65.25
699.182	65.35
699.498	65.38
699.813	65.48
700.128	64.91
700.444	64.93
700.759	65.8
701.074	65.02
701.389	65.4
701.704	65.16
702.019	65.25
702.334	67.05
702.649	66.53
702.964	66.62
703.279	67.73
703.594	67.66
703.908	68.2
704.223	67.52
704.538	67.47
704.852	68.35
705.167	67.97
705.481	68.23
705.796	68.54
706.11	67.43
706.425	67.28
706.739	66.1
707.053	66.13
707.368	65.62
707.682	63.51
707.996	64.43
708.31	63.88
708.624	63.87
708.938	64.76
709.252	63.59
709.566	63.58
709.88	64.41
710.193	63.94
710.507	64.11
710.821	64.1
711.135	63.39
711.448	63.47
711.762	63.57
712.075	64.48
712.389	64.26
712.702	63.69
713.015	63.61
713.329	63.22
713.642	63.66
713.955	65.29
714.269	65.77
714.582	65.96
714.895	64.58
715.208	64.68
715.521	65.35
715.834	63.16
716.147	63.04
716.459	63.03
716.772	62.4
717.085	63.1
717.398	62.12
717.71	61.06
718.023	62
718.336	61.99
718.648	61.04
718.961	60.85
719.273	59.45
719.585	58.96
719.898	58.48
720.21	59.25
720.522	60.04
720.834	59.97
721.147	60.85
721.459	61.11
721.771	60.54
722.083	61.54
722.395	61.59
722.707	62.72
723.019	63.92
723.33	64.41
723.642	65.61
723.954	65.33
724.265	65.14
724.577	65.3
724.889	65.33
725.2	66.76
725.512	67.2
725.823	67.57
726.135	66.92
726.446	66.34
726.757	66.42
727.068	67.34
727.38	67.75
727.691	68.4
728.002	68.08
728.313	67.52
728.624	67.61
728.935	66.87
729.246	65.45
729.557	65.45
729.867	64.64
730.178	65.69
730.489	66.13
730.8	65.19
731.11	65.24
731.421	64.63
731.731	65.18
732.042	65.31
732.352	65.36
732.663	65.71
732.973	65.5
733.283	66.2
733.594	64.9
733.904	65.55
734.214	66.09
734.524	66.41
734.834	66.05
735.144	66.36
735.454	66.07
735.764	65.38
736.074	65.16
736.384	65.31
736.694	65.13
737.003	66.94
737.313	67.16
737.623	66.78
737.932	66.07
738.242	64.54
738.551	64
738.861	63.92
739.17	64.4
739.479	63.82
739.789	64.16
740.098	63.55
740.407	64.33
740.716	63.28
741.025	62.14
741.334	62.15
741.643	60.89
741.952	61.11
742.261	61.62
742.57	62.6
742.879	62.01
743.188	61.69
743.497	63.7
743.805	63.44
744.114	61.93
744.422	62.1
744.731	60.13
745.04	59.52
745.348	59.67
745.656	60.86
745.965	61
746.273	63.28
746.581	65.08
746.889	65.74
747.198	67.62
747.506	66.72
747.814	65.98
748.122	63.88
748.43	63.51
748.738	64.56
749.046	63.87
749.353	64.82
749.661	65.06
749.969	64.48
750.277	62.78
750.584	62.88
750.892	63.5
751.199	61.52
751.507	63.67
751.814	64.31
752.122	63.18
752.429	63.68
752.736	63.03
753.044	64.31
753.351	62.71
753.658	63.77
753.965	61.99
754.272	61.29
754.579	62.59
754.886	60.8
755.193	60.17
755.5	61.21
755.807	60.73
756.114	61.33
756.42	58.61
756.727	58.14
757.034	58.9
757.34	60.41
757.647	60.3
757.953	60.56
758.26	59.23
758.566	58.98
758.872	60.6
759.179	59.89
759.485	59.47
759.791	59.2
760.097	59.57
760.403	60.66
760.709	59.29
761.015	60.09
761.321	60.39
761.627	59.23
761.933	58.03
762.239	56.25
762.545	56.98
762.851	56.9
763.156	55.07
763.462	53.02
763.767	53.7
764.073	55.56
764.378	55.37
764.684	54.19
764.989	51.78
765.295	50.89
765.6	51.02
765.905	53.29
766.21	51.86
766.515	50.85
766.821	47.47
767.126	45.84
767.431	48.03
767.736	46.53
768.041	42.88
768.345	42.31
768.65	39.28
768.955	35.73
769.26	36.22
769.564	36.01
769.869	36.14
770.174	34.68
770.478	32.15
770.783	34.07
771.087	37.11
771.391	35.36
771.696	33.27
772	35.17
772.304	34.64
772.608	32.92
772.913	30.91
773.217	29.3
773.521	25.4
773.825	25.01
774.129	18.53
774.433	19.48
774.736	20.51
775.04	18.35
775.344	17.43
775.648	18
775.951	15.17
776.255	17.34
776.559	24.77
776.862	23.73
777.166	28.27
777.469	23.71
777.772	27.09
778.076	32.55
778.379	29.28
778.682	32.78
778.985	34.66
779.289	33.37
779.592	32.08
779.895	32.6
780.198	38.64
780.501	38.89
780.804	40.88
781.106	42.07
781.409	41.9
781.712	44.76
782.015	45.87
782.317	45.74
782.62	41.19
782.923	42.18
783.225	44.24
783.527	43.11
783.83	43.68
784.132	38.52
784.435	38.19
784.737	32.69
785.039	34.12
785.341	34.34
785.643	34.11
785.945	35.43
786.248	33.15
786.55	29.31
786.851	33.63
787.153	35.03
787.455	28.89
787.757	27.38
788.059	28.1
788.36	26.16
788.662	26.04
788.964	24.09
789.265	24.92
789.567	27.64
789.868	31.02
790.17	27.72
790.471	27.32
790.772	25.27
791.074	23.43
791.375	19.98
791.676	22.13
791.977	26.58
792.278	29.67
792.579	29.95
792.88	25.94
793.181	25.64
793.482	29.53
793.783	29.27
794.083	33.78
794.384	33.14
794.685	27.37
794.986	31.94
795.286	27.06
795.587	23.62
795.887	20.68
796.188	18.72
796.488	19.59
796.788	15.07
797.089	7.3
797.389	2.91
797.689	8.57
797.989	7.26
798.289	4.64
798.589	11.99
798.889	12.5
799.189	10.44
799.489	6.45
799.789	-2.59
800.089	-4.66
800.389	-1.49
800.688	-4.53
800.988	-10.5
801.288	-20.75
801.587	-23.37
801.887	-26.19
802.186	-24.91
802.486	-29.54
802.785	-37.65
803.085	-22.05
803.384	-23.08
803.683	-26.54
803.982	-30.75
804.281	-31.24
804.58	-33.91
804.879	-28.25
805.178	-43.78
805.477	-49.73
805.776	-33.38
806.075	-38.17
806.374	-26.79
806.673	-27.43
806.971	-21.43
807.27	-7.95
807.569	-7.97
807.867	-16.81
808.166	-12.76
808.464	-15.91
808.763	-17.15
809.061	-28.12
809.359	-35.07
809.658	-35.59
809.956	-20.54
810.254	-7.8
810.552	-29.74
810.85	-15.69
811.148	-25.25
811.446	-25.46
811.744	-16.42
812.042	-20.64
812.34	-29.21
812.638	-19.85
812.935	-37.92
813.233	-47.1
813.531	-55.2
813.828	-87.67
814.126	-73.06
814.423	-101.1
814.721	-115.1
815.018	-101.74
815.316	-120.9
815.613	-119.18
815.91	-128.19
816.207	-88.15
816.504	-82.73
816.802	-84.18
817.099	-118.31
817.396	-170.2
817.693	-247.18
817.99	-194.98
818.286	-232.32
818.583	-147.01
818.88	-105.4
819.177	-113.33
819.473	-51.93
819.77	-43.83
820.067	-55.98
820.363	-24.02
820.66	-20.29
820.956	-20.59
821.252	-22.28
821.549	-24.5
821.845	-3.17
822.141	-2.5
822.437	5.55
822.734	11.62
823.03	6.05
823.326	11.28
823.622	17.78
823.918	20.54
824.213	23.89
824.509	27.12
824.805	22.3
825.101	26.99
825.397	23.46
825.692	15.48
825.988	5.45
826.283	6.32
826.579	3.72
826.874	-10.86
827.17	-21.87
827.465	-26.79
827.76	-22.88
828.056	-14.03
828.351	-14.16
828.646	-12.77
828.941	-27.16
829.236	-43.62
829.531	-42.39
829.826	-41.26
830.121	-63.31
830.416	-88.33
830.711	-90.89
831.006	-89.85
831.3	-94.2
831.595	-105.98
831.89	-107.31
832.184	-89.54
832.479	-120.9
832.773	-121.74
833.068	-97.37
833.362	-92.3
833.656	-99.01
833.951	-91.81
834.245	-58.33
834.539	-52.28
834.833	-39.01
835.127	-47.8
835.421	-55.7
835.715	-47.89
836.009	-37.34
836.303	-20.02
836.597	-11
836.891	-13.42
837.185	-25.18
837.478	0.79
837.772	18.38
838.066	18.91
838.359	19.96
838.653	18.52
838.946	11.12
839.24	8.04
839.533	10.83
839.826	14.38
840.119	10.48
840.413	10.33
840.706	21.42
840.999	18.26
841.292	14.18
841.585	18.23
841.878	26.34
842.171	38.97
842.464	34.37
842.757	30.62
843.049	26.59
843.342	22.56
843.635	15.73
843.927	11.41
844.22	10.65
844.513	20.09
844.805	10.26
845.098	9.53
845.39	6.14
845.682	8.26
845.975	5.34
846.267	13.46
846.559	19.1
846.851	18.57
847.143	28.2
847.435	31.25
847.727	31.97
848.019	16.78
848.311	16.82
848.603	21.3
848.895	12.01
849.186	6.79
849.478	-14.3
849.77	-10.32
850.061	-31.74
850.353	-33.86
850.645	-21.14
850.936	-14.3
851.227	-15.05
851.519	-23.61
851.81	-23.05
852.101	-28.05
852.393	-32.05
852.684	-19.69
852.975	-16.07
853.266	-26
853.557	-18.24
853.848	-14.9
854.139	-9.14
854.43	-9.72
854.72	-2.73
855.011	-12.14
855.302	2.88
855.593	4.19
855.883	0.15
856.174	2.54
856.464	13.39
856.755	23.05
857.045	30.57
857.336	32.1
857.626	35.85
857.916	30.58
858.206	24.77
858.497	16.23
858.787	23.41
859.077	19.31
859.367	25.6
859.657	24
859.947	22.94
860.237	10.23
860.527	12.1
860.816	16.81
861.106	12.1
861.396	16.37
861.685	18.27
861.975	11.57
862.265	11.39
862.554	1.53
862.844	-1.91
863.133	-3.5
863.422	-10.89
863.712	-30.51
864.001	-49.69
864.29	-58.47
864.579	-57.72
864.868	-52.48
865.157	-44.29
865.446	-38.3
865.735	-23.96
866.024	-25.12
866.313	-7.71
866.602	-19.23
866.891	-11.59
867.179	-23.96
867.468	-8.35
