Data from T1_Reflection__28__20-32-24-429.txt Node

Date: Wed Jun 02 20:32:24 CEST 2021
User: mabdelazizm
Spectrometer: FLMS18565
Trigger mode: 0
Integration Time (sec): 2.000000E0
Scans to average: 1
Electric dark correction enabled: true
Nonlinearity correction enabled: false
Boxcar width: 12
XAxis mode: Wavelengths
Number of Pixels in Spectrum: 2048
>>>>>Begin Spectral Data<<<<<
179.071	39.09
179.452	31.33
179.833	20.54
180.214	-30
180.595	-49.01
180.977	-47.9
181.358	-11.27
181.739	9.17
182.12	44.84
182.501	33.52
182.882	65.58
183.262	94
183.643	15.04
184.024	25.51
184.405	27.73
184.786	28.31
185.166	24.53
185.547	18.87
185.927	15.65
186.308	21.08
186.689	27.04
187.069	22.25
187.449	25.29
187.83	20.13
188.21	21.56
188.59	21.47
188.971	18.28
189.351	17.17
189.731	13.27
190.111	13.22
190.491	13.83
190.871	16.41
191.251	18.24
191.631	17.64
192.011	17.16
192.391	17.63
192.771	18.63
193.151	16.29
193.531	17.58
193.91	15.98
194.29	14.57
194.67	15.25
195.049	14.66
195.429	14.31
195.808	13.38
196.188	12.79
196.567	11.62
196.946	11.38
197.326	11.4
197.705	9.95
198.084	8.82
198.464	9.72
198.843	8.81
199.222	9.49
199.601	9.59
199.98	10.09
200.359	9.78
200.738	10.31
201.117	11.09
201.496	10.59
201.875	10.15
202.254	9.5
202.632	9.67
203.011	7.76
203.39	8.89
203.768	7.99
204.147	7.84
204.525	8.03
204.904	9.46
205.282	10.97
205.661	10.68
206.039	10.44
206.418	10.13
206.796	10.91
207.174	10.95
207.552	10.79
207.931	10.64
208.309	10.81
208.687	10.37
209.065	9.7
209.443	9.95
209.821	9.84
210.199	8.25
210.577	6.82
210.954	6.79
211.332	6.49
211.71	6.76
212.088	6.77
212.465	6.97
212.843	6.79
213.221	7.79
213.598	7.55
213.976	7.43
214.353	6.79
214.731	5.84
215.108	5.21
215.485	5.46
215.863	5.22
216.24	4.77
216.617	5.23
216.994	5.63
217.371	5.1
217.749	4.98
218.126	4.88
218.503	4.54
218.88	4.21
219.256	3.78
219.633	3.97
220.01	4
220.387	4
220.764	4.19
221.14	4.11
221.517	4.09
221.894	3.99
222.27	3.49
222.647	3.41
223.023	2.99
223.4	3.14
223.776	3.27
224.153	3.46
224.529	3.24
224.905	3.48
225.282	3.46
225.658	3.28
226.034	2.79
226.41	2.77
226.786	3.11
227.162	3.23
227.538	3.28
227.914	3.26
228.29	3.19
228.666	3
229.042	2.92
229.418	3.12
229.793	3.03
230.169	3.04
230.545	2.81
230.92	2.73
231.296	2.57
231.672	2.62
232.047	2.57
232.422	2.85
232.798	2.59
233.173	2.44
233.549	2.26
233.924	2.26
234.299	2.16
234.674	2.12
235.05	2.28
235.425	2.3
235.8	2.3
236.175	2.23
236.55	2.12
236.925	2.08
237.3	2.07
237.675	1.95
238.049	2.01
238.424	2
238.799	1.98
239.174	2.07
239.548	2.04
239.923	2.04
240.297	2.07
240.672	2.09
241.046	2.14
241.421	2.14
241.795	2.02
242.17	2.05
242.544	2
242.918	1.96
243.293	2.05
243.667	1.99
244.041	1.95
244.415	1.88
244.789	1.93
245.163	1.93
245.537	1.91
245.911	1.77
246.285	1.8
246.659	1.81
247.033	1.87
247.406	1.84
247.78	1.82
248.154	1.78
248.528	1.74
248.901	1.78
249.275	1.82
249.648	1.72
250.022	1.77
250.395	1.74
250.769	1.71
251.142	1.76
251.515	1.81
251.888	1.86
252.262	1.95
252.635	1.89
253.008	1.98
253.381	1.99
253.754	2
254.127	1.97
254.5	1.95
254.873	1.93
255.246	2.04
255.619	1.97
255.992	1.94
256.364	1.97
256.737	1.99
257.11	2.02
257.483	2.04
257.855	2.01
258.228	1.98
258.6	2.02
258.973	2.05
259.345	1.99
259.718	1.97
260.09	1.99
260.462	1.91
260.834	1.85
261.207	1.74
261.579	1.67
261.951	1.69
262.323	1.7
262.695	1.65
263.067	1.65
263.439	1.64
263.811	1.6
264.183	1.6
264.555	1.62
264.927	1.65
265.298	1.7
265.67	1.64
266.042	1.58
266.413	1.53
266.785	1.54
267.156	1.52
267.528	1.52
267.899	1.46
268.271	1.42
268.642	1.48
269.013	1.48
269.385	1.47
269.756	1.5
270.127	1.54
270.498	1.63
270.87	1.67
271.241	1.62
271.612	1.52
271.983	1.57
272.354	1.52
272.724	1.51
273.095	1.51
273.466	1.51
273.837	1.46
274.208	1.46
274.578	1.38
274.949	1.39
275.32	1.4
275.69	1.4
276.061	1.36
276.431	1.42
276.802	1.4
277.172	1.39
277.542	1.38
277.913	1.36
278.283	1.36
278.653	1.4
279.023	1.34
279.394	1.37
279.764	1.39
280.134	1.36
280.504	1.39
280.874	1.45
281.244	1.4
281.614	1.39
281.983	1.4
282.353	1.4
282.723	1.38
283.093	1.4
283.462	1.38
283.832	1.39
284.202	1.37
284.571	1.37
284.941	1.4
285.31	1.36
285.68	1.32
286.049	1.31
286.418	1.27
286.788	1.34
287.157	1.35
287.526	1.32
287.895	1.26
288.264	1.31
288.633	1.27
289.002	1.21
289.371	1.22
289.74	1.19
290.109	1.13
290.478	1.13
290.847	1.14
291.216	1.14
291.585	1.1
291.953	1.1
292.322	1.11
292.691	1.08
293.059	1.06
293.428	1.06
293.796	1.11
294.165	1.06
294.533	1.06
294.901	1.12
295.27	1.09
295.638	1.11
296.006	1.05
296.374	1.05
296.743	1.03
297.111	1.02
297.479	0.95
297.847	0.89
298.215	0.91
298.583	0.88
298.95	0.92
299.318	0.91
299.686	0.9
300.054	0.93
300.422	0.86
300.789	0.85
301.157	0.82
301.525	0.85
301.892	0.87
302.26	0.88
302.627	0.88
302.994	0.81
303.362	0.88
303.729	0.89
304.097	0.81
304.464	0.83
304.831	0.81
305.198	0.9
305.565	0.84
305.932	0.87
306.299	0.87
306.666	0.88
307.033	0.94
307.4	0.93
307.767	0.89
308.134	0.86
308.501	0.87
308.867	0.91
309.234	0.9
309.601	0.96
309.967	0.98
310.334	1.02
310.701	0.97
311.067	0.96
311.433	1.04
311.8	1
312.166	1.03
312.533	1
312.899	1.08
313.265	1.05
313.631	1.04
313.997	1.02
314.363	0.96
314.729	0.97
315.096	1.01
315.461	1.03
315.827	1.06
316.193	1.08
316.559	1.04
316.925	1.07
317.291	1.05
317.656	1.03
318.022	1.02
318.388	0.98
318.753	0.98
319.119	0.99
319.484	1.03
319.85	0.99
320.215	0.98
320.581	0.85
320.946	0.84
321.311	0.88
321.676	0.87
322.042	0.81
322.407	0.86
322.772	0.87
323.137	0.91
323.502	0.92
323.867	0.87
324.232	0.82
324.597	0.82
324.962	0.87
325.327	0.78
325.691	0.82
326.056	0.84
326.421	0.88
326.785	0.86
327.15	0.83
327.514	0.85
327.879	0.92
328.243	0.81
328.608	0.78
328.972	0.78
329.337	0.77
329.701	0.8
330.065	0.89
330.429	0.79
330.794	0.78
331.158	0.79
331.522	0.72
331.886	0.71
332.25	0.67
332.614	0.62
332.978	0.6
333.342	0.61
333.705	0.56
334.069	0.5
334.433	0.49
334.797	0.39
335.16	0.35
335.524	0.33
335.887	0.37
336.251	0.34
336.614	0.32
336.978	0.23
337.341	0.3
337.705	0.31
338.068	0.38
338.431	0.39
338.794	0.41
339.158	0.37
339.521	0.38
339.884	0.39
340.247	0.34
340.61	0.37
340.973	0.42
341.336	0.44
341.699	0.43
342.062	0.45
342.424	0.41
342.787	0.41
343.15	0.41
343.512	0.5
343.875	0.58
344.238	0.6
344.6	0.54
344.963	0.57
345.325	0.6
345.688	0.58
346.05	0.65
346.412	0.67
346.775	0.64
347.137	0.66
347.499	0.68
347.861	0.63
348.223	0.66
348.585	0.71
348.947	0.71
349.309	0.7
349.671	0.74
350.033	0.7
350.395	0.7
350.757	0.78
351.118	0.82
351.48	0.86
351.842	0.9
352.203	0.97
352.565	0.89
352.927	0.93
353.288	0.94
353.65	1.05
354.011	1
354.372	1.02
354.734	1.06
355.095	0.97
355.456	0.93
355.817	0.9
356.179	0.85
356.54	0.84
356.901	0.89
357.262	0.86
357.623	0.82
357.984	0.83
358.345	0.82
358.705	0.79
359.066	0.72
359.427	0.77
359.788	0.67
360.148	0.64
360.509	0.58
360.87	0.55
361.23	0.42
361.591	0.43
361.951	0.32
362.312	0.23
362.672	0.17
363.032	0.12
363.393	0.1
363.753	0.06
364.113	0.05
364.473	0.11
364.833	0.05
365.193	0.03
365.553	-0.04
365.913	-0.04
366.273	-0.11
366.633	-0.09
366.993	-0.17
367.353	-0.22
367.713	-0.19
368.072	-0.1
368.432	-0.15
368.792	-0.08
369.151	-0.03
369.511	0.04
369.87	0.07
370.23	0.18
370.589	0.21
370.949	0.24
371.308	0.36
371.667	0.34
372.027	0.43
372.386	0.45
372.745	0.42
373.104	0.49
373.463	0.44
373.822	0.51
374.181	0.46
374.54	0.52
374.899	0.51
375.258	0.53
375.617	0.53
375.975	0.63
376.334	0.73
376.693	0.71
377.052	0.65
377.41	0.7
377.769	0.68
378.127	0.68
378.486	0.65
378.844	0.62
379.202	0.56
379.561	0.53
379.919	0.53
380.277	0.45
380.636	0.54
380.994	0.48
381.352	0.46
381.71	0.47
382.068	0.46
382.426	0.42
382.784	0.43
383.142	0.55
383.5	0.55
383.857	0.61
384.215	0.62
384.573	0.58
384.931	0.49
385.288	0.52
385.646	0.48
386.003	0.47
386.361	0.45
386.718	0.45
387.076	0.46
387.433	0.45
387.791	0.4
388.148	0.39
388.505	0.44
388.862	0.44
389.22	0.48
389.577	0.4
389.934	0.51
390.291	0.48
390.648	0.51
391.005	0.55
391.362	0.53
391.718	0.52
392.075	0.45
392.432	0.44
392.789	0.34
393.145	0.32
393.502	0.36
393.859	0.35
394.215	0.29
394.572	0.31
394.928	0.33
395.285	0.23
395.641	0.17
395.997	0.17
396.354	0.18
396.71	0.25
397.066	0.24
397.422	0.19
397.778	0.12
398.134	0.07
398.491	0.15
398.846	0.03
399.202	0.04
399.558	0.05
399.914	-0.01
400.27	0.07
400.626	0.02
400.981	0.08
401.337	0.03
401.693	0.1
402.048	0.11
402.404	0.18
402.759	0.23
403.115	0.28
403.47	0.28
403.826	0.32
404.181	0.41
404.536	0.46
404.892	0.39
405.247	0.38
405.602	0.37
405.957	0.4
406.312	0.43
406.667	0.56
407.022	0.55
407.377	0.55
407.732	0.57
408.087	0.52
408.442	0.63
408.796	0.64
409.151	0.67
409.506	0.74
409.86	0.63
410.215	0.78
410.57	0.69
410.924	0.74
411.279	0.69
411.633	0.64
411.987	0.66
412.342	0.69
412.696	0.69
413.05	0.75
413.404	0.77
413.758	0.88
414.113	0.89
414.467	0.93
414.821	0.96
415.175	1.13
415.529	1.15
415.882	1.21
416.236	1.17
416.59	1.26
416.944	1.37
417.298	1.41
417.651	1.42
418.005	1.39
418.358	1.46
418.712	1.64
419.065	1.65
419.419	1.64
419.772	1.66
420.126	1.65
420.479	1.83
420.832	1.79
421.185	1.85
421.539	1.95
421.892	1.91
422.245	1.95
422.598	1.94
422.951	1.9
423.304	1.79
423.657	1.8
424.01	1.78
424.363	1.76
424.715	1.76
425.068	1.83
425.421	1.77
425.773	1.78
426.126	1.79
426.479	1.91
426.831	1.9
427.184	1.94
427.536	1.91
427.889	1.96
428.241	2.18
428.593	2.18
428.945	2.26
429.298	2.19
429.65	2.24
430.002	2.26
430.354	2.22
430.706	2.22
431.058	2.21
431.41	2.27
431.762	2.4
432.114	2.49
432.466	2.5
432.817	2.44
433.169	2.42
433.521	2.51
433.872	2.53
434.224	2.51
434.576	2.53
434.927	2.46
435.279	2.37
435.63	2.4
435.981	2.35
436.333	2.37
436.684	2.29
437.035	2.12
437.387	2.14
437.738	2.08
438.089	2.07
438.44	2.03
438.791	1.91
439.142	1.8
439.493	1.84
439.844	1.78
440.195	1.68
440.545	1.7
440.896	1.77
441.247	1.82
441.598	1.81
441.948	1.85
442.299	1.87
442.649	1.83
443	1.8
443.35	1.79
443.701	1.8
444.051	1.77
444.401	1.85
444.752	1.83
445.102	1.78
445.452	1.75
445.802	1.7
446.152	1.72
446.502	1.69
446.852	1.67
447.202	1.73
447.552	1.73
447.902	1.85
448.252	1.82
448.602	3.02
448.952	3.11
449.301	3.06
449.651	2.96
450.001	3
450.35	2.99
450.7	3.03
451.049	3.03
451.399	3.11
451.748	3.23
452.097	3.26
452.447	3.27
452.796	3.23
453.145	3.18
453.494	3.13
453.843	3.12
454.193	3.29
454.542	3.47
454.891	3.56
455.239	3.59
455.588	3.59
455.937	3.54
456.286	3.61
456.635	3.65
456.984	3.67
457.332	2.36
457.681	2.44
458.03	2.51
458.378	2.62
458.727	2.61
459.075	2.75
459.423	2.78
459.772	2.81
460.12	2.8
460.468	2.93
460.817	3.02
461.165	3.11
461.513	3.26
461.861	3.19
462.209	3.25
462.557	3.3
462.905	3.23
463.253	3.08
463.601	2.99
463.949	3.07
464.297	3.1
464.644	3.18
464.992	3.19
465.34	3.21
465.687	3.2
466.035	3.24
466.383	3.16
466.73	3.2
467.078	3.17
467.425	3.1
467.772	3.09
468.12	3.04
468.467	2.98
468.814	2.94
469.161	2.84
469.508	2.7
469.856	2.65
470.203	2.59
470.55	2.63
470.897	2.63
471.243	2.65
471.59	2.52
471.937	2.66
472.284	2.72
472.631	2.71
472.977	2.67
473.324	2.7
473.671	2.71
474.017	2.56
474.364	2.65
474.71	2.63
475.057	2.63
475.403	2.49
475.749	2.48
476.096	2.51
476.442	2.46
476.788	2.41
477.134	2.38
477.48	2.43
477.826	2.44
478.172	2.51
478.518	2.49
478.864	2.48
479.21	2.5
479.556	2.49
479.902	2.55
480.248	2.67
480.593	2.57
480.939	2.52
481.285	2.49
481.63	2.52
481.976	2.54
482.321	2.65
482.667	2.77
483.012	2.77
483.357	3
483.703	3.04
484.048	3.24
484.393	3.31
484.738	3.47
485.084	3.55
485.429	3.75
485.774	3.99
486.119	4.09
486.464	4.22
486.808	4.32
487.153	4.58
487.498	4.83
487.843	5.12
488.188	5.41
488.532	5.62
488.877	5.89
489.222	6.38
489.566	6.75
489.911	7.17
490.255	7.68
490.6	8.11
490.944	8.47
491.288	8.97
491.633	9.46
491.977	9.82
492.321	10.37
492.665	10.81
493.009	11.44
493.353	11.9
493.697	12.53
494.041	13.13
494.385	13.69
494.729	14.33
495.073	14.98
495.417	15.66
495.76	16.17
496.104	16.81
496.448	17.53
496.791	18.21
497.135	18.92
497.479	19.69
497.822	20.32
498.165	21.02
498.509	21.75
498.852	22.43
499.196	23.23
499.539	23.93
499.882	24.53
500.225	25.23
500.568	25.98
500.911	26.68
501.254	27.43
501.597	28.14
501.94	28.85
502.283	29.58
502.626	30.29
502.969	30.96
503.312	31.56
503.654	32.28
503.997	33.04
504.34	33.72
504.682	34.45
505.025	35.03
505.367	35.79
505.71	36.5
506.052	37.15
506.395	37.91
506.737	38.6
507.079	39.26
507.421	40
507.764	40.58
508.106	41.21
508.448	41.8
508.79	42.37
509.132	42.97
509.474	43.5
509.816	44.02
510.158	44.57
510.499	45.09
510.841	45.45
511.183	45.91
511.525	46.3
511.866	46.88
512.208	47.3
512.549	47.72
512.891	48.25
513.232	48.72
513.574	49.2
513.915	49.51
514.256	49.98
514.598	50.36
514.939	50.71
515.28	51.02
515.621	51.36
515.962	51.66
516.303	52.07
516.644	52.52
516.985	53.02
517.326	53.34
517.667	53.52
518.008	53.86
518.349	54.12
518.69	54.31
519.03	54.53
519.371	54.93
519.712	55.12
520.052	55.34
520.393	55.58
520.733	55.76
521.074	55.95
521.414	56.28
521.754	56.46
522.095	56.64
522.435	56.89
522.775	57.06
523.115	57.48
523.455	57.69
523.795	57.94
524.135	58.04
524.475	58.23
524.815	58.38
525.155	58.48
525.495	58.59
525.835	58.92
526.175	59.1
526.514	59.21
526.854	59.34
527.194	59.42
527.533	59.52
527.873	59.51
528.212	59.66
528.552	59.94
528.891	60.25
529.23	60.27
529.57	60.39
529.909	60.49
530.248	60.67
530.587	60.88
530.927	60.91
531.266	60.9
531.605	60.87
531.944	60.86
532.283	60.89
532.621	61.08
532.96	61.27
533.299	61.31
533.638	61.36
533.977	61.37
534.315	61.45
534.654	61.51
534.992	61.49
535.331	61.52
535.67	61.69
536.008	61.77
536.346	61.91
536.685	61.92
537.023	62.14
537.361	61.99
537.7	62.35
538.038	62.43
538.376	62.54
538.714	62.55
539.052	62.45
539.39	62.48
539.728	62.64
540.066	62.69
540.404	62.78
540.741	62.8
541.079	62.79
541.417	62.63
541.755	62.78
542.092	62.86
542.43	63.07
542.767	63.05
543.105	62.98
543.442	63.1
543.78	63.28
544.117	63.28
544.454	63.55
544.792	63.69
545.129	63.73
545.466	63.5
545.803	63.71
546.14	63.52
546.477	63.6
546.814	63.54
547.151	63.66
547.488	63.8
547.825	63.86
548.162	63.89
548.499	63.84
548.835	64.01
549.172	64.14
549.509	64.17
549.845	64.31
550.182	64.2
550.518	64.21
550.855	64.1
551.191	64.21
551.528	64.57
551.864	64.64
552.2	64.73
552.537	64.82
552.873	64.82
553.209	64.8
553.545	64.95
553.881	65.14
554.217	65.21
554.553	65.32
554.889	65.38
555.225	65.49
555.561	65.17
555.896	65.16
556.232	65.38
556.568	65.32
556.903	65.34
557.239	65.27
557.575	65.32
557.91	65.43
558.245	65.57
558.581	65.5
558.916	65.6
559.252	65.73
559.587	65.61
559.922	65.4
560.257	65.34
560.592	65.21
560.928	65.18
561.263	65.12
561.598	65.12
561.933	65.24
562.267	65.23
562.602	65.12
562.937	65.13
563.272	65.15
563.607	65.07
563.941	65.28
564.276	65.42
564.611	65.41
564.945	65.57
565.28	65.74
565.614	65.8
565.949	65.9
566.283	66
566.617	65.89
566.951	65.87
567.286	65.77
567.62	65.81
567.954	65.84
568.288	65.94
568.622	65.9
568.956	65.95
569.29	66.02
569.624	66.04
569.958	66.06
570.292	66.02
570.626	66.01
570.959	66.04
571.293	66.06
571.627	66.2
571.96	66.31
572.294	66.43
572.627	66.46
572.961	66.48
573.294	66.38
573.627	66.35
573.961	66.3
574.294	66.32
574.627	66.28
574.961	66.43
575.294	66.65
575.627	66.86
575.96	66.75
576.293	66.7
576.626	66.71
576.959	66.77
577.292	66.83
577.624	66.74
577.957	66.8
578.29	66.83
578.623	66.91
578.955	66.89
579.288	66.86
579.62	66.96
579.953	66.87
580.285	66.8
580.618	66.89
580.95	66.88
581.282	66.87
581.615	67.03
581.947	67.04
582.279	67.06
582.611	67.07
582.943	67.07
583.275	66.98
583.607	66.92
583.939	66.74
584.271	66.87
584.603	67.02
584.935	67.01
585.267	67.14
585.598	67.14
585.93	67.41
586.262	67.46
586.593	67.49
586.925	67.43
587.256	67.51
587.588	67.58
587.919	67.51
588.25	67.69
588.582	67.67
588.913	67.46
589.244	67.57
589.575	67.5
589.907	67.56
590.238	67.55
590.569	67.72
590.9	67.76
591.231	67.9
591.562	67.77
591.892	67.84
592.223	68.05
592.554	68.08
592.885	68.07
593.215	68.08
593.546	67.94
593.877	67.82
594.207	67.58
594.538	67.66
594.868	67.7
595.198	67.78
595.529	67.82
595.859	67.91
596.189	67.97
596.52	67.88
596.85	68.03
597.18	68.09
597.51	68.05
597.84	68.22
598.17	68.08
598.5	68.08
598.83	67.91
599.16	67.83
599.489	67.8
599.819	67.98
600.149	67.83
600.479	67.67
600.808	67.7
601.138	67.6
601.467	67.54
601.797	67.66
602.126	67.76
602.456	68.01
602.785	67.78
603.114	67.78
603.443	67.72
603.773	67.68
604.102	67.75
604.431	67.75
604.76	67.65
605.089	67.43
605.418	67.47
605.747	67.35
606.076	67.19
606.405	67.23
606.733	67.37
607.062	67.51
607.391	67.54
607.72	67.47
608.048	67.3
608.377	67.48
608.705	67.52
609.034	67.55
609.362	67.53
609.69	67.49
610.019	67.42
610.347	67.44
610.675	67.18
611.004	67.07
611.332	66.94
611.66	66.71
611.988	66.71
612.316	66.63
612.644	66.54
612.972	66.64
613.3	66.9
613.627	66.88
613.955	66.96
614.283	67
614.611	67.04
614.938	66.73
615.266	66.6
615.593	66.43
615.921	66.4
616.248	66.49
616.576	66.57
616.903	66.66
617.23	66.61
617.558	66.83
617.885	66.9
618.212	66.95
618.539	66.82
618.866	66.87
619.193	67.03
619.52	66.99
619.847	67.45
620.174	67.92
620.501	67.71
620.828	67.59
621.155	67.5
621.481	67.35
621.808	67.45
622.135	67.46
622.461	67.53
622.788	67.49
623.114	67.69
623.441	67.87
623.767	68.22
624.093	68.3
624.42	68.28
624.746	68.23
625.072	68.33
625.398	68
625.725	67.8
626.051	68.28
626.377	68.77
626.703	69.04
627.029	68.9
627.354	69.19
627.68	69.5
628.006	69.37
628.332	68.64
628.658	68.95
628.983	69.68
629.309	69.92
629.634	69.82
629.96	69.4
630.285	69.5
630.611	69.45
630.936	69.87
631.262	69.64
631.587	69.43
631.912	69.28
632.237	68.92
632.562	69.37
632.887	69.03
633.213	68.68
633.538	69.03
633.863	69.1
634.187	68.79
634.512	68.13
634.837	68.15
635.162	68.61
635.487	68.26
635.811	68.45
636.136	68.12
636.461	68.3
636.785	68.03
637.11	67.64
637.434	67.4
637.758	67.65
638.083	68.21
638.407	67.97
638.731	68.19
639.056	67.79
639.38	68.08
639.704	68.34
640.028	68.42
640.352	68.74
640.676	68.7
641	68.63
641.324	68.63
641.648	68.39
641.972	68.4
642.295	67.84
642.619	67.99
642.943	68.16
643.266	68.01
643.59	68.11
643.913	67.68
644.237	68.04
644.56	67.72
644.884	67.86
645.207	67.84
645.53	68
645.854	67.96
646.177	67.29
646.5	67.58
646.823	67.29
647.146	67.34
647.469	67.33
647.792	66.8
648.115	66.77
648.438	66.77
648.761	67.96
649.084	68.48
649.406	69.28
649.729	68.96
650.052	68.45
650.374	68.36
650.697	68.51
651.019	68.18
651.342	68.15
651.664	68.09
651.987	68.11
652.309	67.98
652.631	68.19
652.953	68.1
653.276	68.09
653.598	67.97
653.92	68.03
654.242	68.13
654.564	68.03
654.886	68.2
655.208	68.06
655.53	68.01
655.851	68.05
656.173	68.28
656.495	68.37
656.816	67.69
657.138	67.16
657.46	65.46
657.781	65.21
658.103	65.96
658.424	66.38
658.746	65.21
659.067	65.7
659.388	65.53
659.709	65.94
660.031	65.53
660.352	66.15
660.673	65.97
660.994	66.76
661.315	66.97
661.636	66.96
661.957	66.1
662.278	66.67
662.599	66.84
662.919	65.9
663.24	66.1
663.561	66.3
663.881	66.22
664.202	65.36
664.523	65.79
664.843	65.78
665.164	66.44
665.484	67.04
665.804	67.02
666.125	66.72
666.445	66.78
666.765	67.91
667.085	67.96
667.405	67.9
667.726	67.54
668.046	67.9
668.366	67.09
668.686	66.95
669.005	65.78
669.325	64.98
669.645	65.05
669.965	65.86
670.285	65.35
670.604	64.57
670.924	64.99
671.243	65.51
671.563	65.35
671.882	65.56
672.202	65.66
672.521	65.29
672.841	65.42
673.16	65.18
673.479	64.97
673.798	64.31
674.117	64.58
674.437	64.36
674.756	63.58
675.075	64.09
675.394	64.25
675.713	64.48
676.031	64.65
676.35	65.39
676.669	65.82
676.988	66.39
677.306	66.98
677.625	67.31
677.944	67.17
678.262	67.21
678.581	68.3
678.899	68.65
679.218	68.04
679.536	68.5
679.854	67.93
680.172	67.79
680.491	67.44
680.809	67.33
681.127	66.58
681.445	67.09
681.763	67.41
682.081	66.68
682.399	66.24
682.717	66.21
683.035	66.56
683.352	66.71
683.67	66.88
683.988	67.3
684.306	67.49
684.623	66.78
684.941	66.93
685.258	66.79
685.576	66.18
685.893	65.67
686.211	65.54
686.528	64.66
686.845	64.37
687.162	65.45
687.48	65.18
687.797	66
688.114	66.14
688.431	66.25
688.748	66.6
689.065	67.11
689.382	66.3
689.699	66.3
690.015	66.56
690.332	67.43
690.649	67.19
690.966	66.03
691.282	66.17
691.599	66.17
691.915	65.52
692.232	65.69
692.548	66.55
692.865	66.35
693.181	66.55
693.497	66.74
693.813	67.13
694.13	68.21
694.446	67.99
694.762	68.27
695.078	67.2
695.394	67.22
695.71	66.77
696.026	66.77
696.342	67.09
696.658	66.5
696.973	66.46
697.289	67.48
697.605	67.53
697.92	68.15
698.236	68.3
698.551	67.96
698.867	69.27
699.182	69.5
699.498	69.31
699.813	70.68
700.128	69.94
700.444	69.46
700.759	70.67
701.074	70.02
701.389	70.69
701.704	71.06
702.019	71.21
702.334	72.34
702.649	72
702.964	71.77
703.279	71.71
703.594	71.5
703.908	70.9
704.223	70.77
704.538	69.94
704.852	70.57
705.167	69.77
705.481	69.15
705.796	68.57
706.11	68.07
706.425	68.44
706.739	67.12
707.053	66.61
707.368	67.48
707.682	65.82
707.996	66.21
708.31	66.14
708.624	64.77
708.938	65.36
709.252	64.52
709.566	64.31
709.88	63.73
710.193	63.33
710.507	63.23
710.821	64.4
711.135	63.02
711.448	63.64
711.762	65.48
712.075	65.84
712.389	67.23
712.702	66.36
713.015	67.3
713.329	68.01
713.642	68.99
713.955	69.58
714.269	70.16
714.582	70.28
714.895	69.93
715.208	69.15
715.521	68.87
715.834	67.86
716.147	67.87
716.459	68.18
716.772	67.71
717.085	68.62
717.398	68.09
717.71	67.57
718.023	67.09
718.336	66.55
718.648	66.1
718.961	67.51
719.273	68.12
719.585	67.62
719.898	66.69
720.21	66.17
720.522	66.49
720.834	64.88
721.147	65.86
721.459	64.81
721.771	64.92
722.083	65.51
722.395	65.64
722.707	66.62
723.019	66.39
723.33	66.55
723.642	66.71
723.954	66.66
724.265	67.43
724.577	67.14
724.889	66.45
725.2	66.46
725.512	66.88
725.823	68.66
726.135	68.54
726.446	67.59
726.757	67.44
727.068	65.73
727.38	65.43
727.691	66.27
728.002	67.13
728.313	67.22
728.624	67.25
728.935	66.74
729.246	66.31
729.557	65.43
729.867	65.9
730.178	66.67
730.489	66
730.8	65.77
731.11	65.13
731.421	64.94
731.731	64.63
732.042	64.02
732.352	63.86
732.663	63.3
732.973	63.79
733.283	63.28
733.594	61.88
733.904	62.01
734.214	62.71
734.524	63.07
734.834	64.45
735.144	63.99
735.454	63.04
735.764	62.22
736.074	61.71
736.384	63.15
736.694	62.28
737.003	62.85
737.313	64.11
737.623	62.99
737.932	61.47
738.242	61.12
738.551	61.53
738.861	63.04
739.17	62.72
739.479	63.31
739.789	64.49
740.098	64.65
740.407	65.43
740.716	65.07
741.025	65.51
741.334	64.52
741.643	64.42
741.952	62.49
742.261	62.6
742.57	62.44
742.879	62.83
743.188	63.93
743.497	64.31
743.805	67.31
744.114	66.69
744.422	67.06
744.731	66.7
745.04	65.48
745.348	65.83
745.656	68.09
745.965	68.79
746.273	66.78
746.581	69.17
746.889	70.51
747.198	70.15
747.506	67.97
747.814	66.32
748.122	67.26
748.43	67.3
748.738	67.03
749.046	70.31
749.353	72.51
749.661	73.31
749.969	71.64
750.277	70.21
750.584	72.56
750.892	73.41
751.199	73.6
751.507	70.92
751.814	68.88
752.122	66.86
752.429	66.76
752.736	67.33
753.044	65.69
753.351	64.01
753.658	64.16
753.965	65.63
754.272	64.22
754.579	64.1
754.886	62.64
755.193	61.81
755.5	63.4
755.807	62.81
756.114	61.33
756.42	60.27
756.727	59.66
757.034	58.21
757.34	61.3
757.647	61.93
757.953	61.23
758.26	59.23
758.566	59.66
758.872	59.28
759.179	58.64
759.485	59.43
759.791	60.6
760.097	60.28
760.403	59.85
760.709	61.99
761.015	64.23
761.321	67.61
761.627	67.54
761.933	68.62
762.239	69.5
762.545	70.81
762.851	72.4
763.156	70.24
763.462	69.96
763.767	72.12
764.073	73.64
764.378	73.18
764.684	74.22
764.989	68.73
765.295	67.38
765.6	68.18
765.905	69.66
766.21	67.16
766.515	67.5
766.821	67.41
767.126	67.35
767.431	68.06
767.736	69.48
768.041	68.19
768.345	66.22
768.65	64.57
768.955	59.28
769.26	58.79
769.564	56.6
769.869	56.85
770.174	53.95
770.478	54.26
770.783	58.47
771.087	59.82
771.391	59.02
771.696	58.26
772	60.93
772.304	62.64
772.608	67.68
772.913	70.22
773.217	72.19
773.521	68.39
773.825	67.77
774.129	63.71
774.433	64.97
774.736	62.99
775.04	70.41
775.344	69.64
775.648	68.3
775.951	68.51
776.255	63.26
776.559	63.09
776.862	67.22
777.166	71.65
777.469	66.73
777.772	74.54
778.076	77.73
778.379	75.7
778.682	75.46
778.985	72.63
779.289	69.1
779.592	65.35
779.895	59.51
780.198	57.03
780.501	57.49
780.804	55.94
781.106	58.56
781.409	59.26
781.712	62.34
782.015	63.25
782.317	63.27
782.62	59.98
782.923	60.51
783.225	61.74
783.527	62.6
783.83	63.67
784.132	69.57
784.435	65.53
784.737	58.96
785.039	58.41
785.341	55.15
785.643	50.98
785.945	47.22
786.248	47.06
786.55	44.95
786.851	48.91
787.153	50.8
787.455	53.72
787.757	53.32
788.059	50.03
788.36	49.17
788.662	52.39
788.964	51.96
789.265	51.99
789.567	51.68
789.868	56.63
790.17	50.8
790.471	54.7
790.772	54.73
791.074	54.16
791.375	51.65
791.676	44.71
791.977	49.2
792.278	47.92
792.579	48.47
792.88	48.89
793.181	48.08
793.482	53.5
793.783	52.11
794.083	54.68
794.384	51.85
794.685	45.25
794.986	44.45
795.286	49.84
795.587	52.76
795.887	51.05
796.188	46.82
796.488	46.4
796.788	38.85
797.089	37.93
797.389	36.94
797.689	40.78
797.989	36.77
798.289	33.72
798.589	34.07
798.889	39.25
799.189	41.97
799.489	40.11
799.789	38.71
800.089	41.85
800.389	44.84
800.688	44.86
800.988	45.67
801.288	45.96
801.587	45.85
801.887	44.7
802.186	49.21
802.486	43.99
802.785	30.04
803.085	34.29
803.384	42.5
803.683	41.17
803.982	41.15
804.281	48.16
804.58	46.06
804.879	42.24
805.178	39.49
805.477	33.54
805.776	50.06
806.075	49.05
806.374	49.46
806.673	45.6
806.971	43.32
807.27	44.12
807.569	35.27
807.867	26.81
808.166	23.84
808.464	3
808.763	2.53
809.061	4.14
809.359	7.75
809.658	15.51
809.956	33.25
810.254	38.16
810.552	26.15
810.85	31.09
811.148	23.04
811.446	28.12
811.744	39.26
812.042	38.13
812.34	37.15
812.638	46.3
812.935	45.28
813.233	21.37
813.531	21.58
813.828	23.86
814.126	27.43
814.423	36.77
814.721	46.84
815.018	50.65
815.316	53.68
815.613	47.26
815.91	68.3
816.207	62.19
816.504	55.99
816.802	50.27
817.099	44.12
817.396	18.74
817.693	1.88
817.99	23.41
818.286	-10.31
818.583	15.07
818.88	9.92
819.177	15.89
819.473	42.86
819.77	36.39
820.067	31.86
820.363	40.1
820.66	59.67
820.956	59.07
821.252	44.12
821.549	41.58
821.845	37.87
822.141	32.55
822.437	36.31
822.734	34.62
823.03	37.76
823.326	44.49
823.622	42.47
823.918	53.1
824.213	50.49
824.509	52.51
824.805	49.75
825.101	50.36
825.397	48.91
825.692	50.36
825.988	51.55
826.283	52.73
826.579	39.55
826.874	39.63
827.17	41.69
827.465	33.35
827.76	36.07
828.056	39.3
828.351	34.69
828.646	36.43
828.941	34.25
829.236	32.35
829.531	31.65
829.826	35.59
830.121	40.25
830.416	41.43
830.711	22.73
831.006	19.61
831.3	-11.9
831.595	-9.51
831.89	-18.52
832.184	-12.33
832.479	-23.29
832.773	-40.69
833.068	-49.37
833.362	-58.37
833.656	-62.46
833.951	-57
834.245	-50
834.539	-44.12
834.833	-22.6
835.127	-40.3
835.421	-57.83
835.715	-48.17
836.009	-35.21
836.303	-25.11
836.597	-22.13
836.891	-18.58
837.185	-34.51
837.478	-25.54
837.772	-22.5
838.066	-20.98
838.359	-28.25
838.653	-20.17
838.946	-26.42
839.24	-31.5
839.533	-21.5
839.826	-13.28
840.119	-0.26
840.413	13.1
840.706	19.71
840.999	20.01
841.292	18.76
841.585	15.22
841.878	17.33
842.171	19.23
842.464	17.26
842.757	20.33
843.049	11.65
843.342	0.14
843.635	-3.71
843.927	-3.1
844.22	-8.08
844.513	-1.88
844.805	-9.49
845.098	-12.61
845.39	-4.35
845.682	4.79
845.975	9.92
846.267	14.51
846.559	19.73
846.851	14.22
847.143	13.45
847.435	9.14
847.727	6.37
848.019	1.92
848.311	0.41
848.603	8.33
848.895	12.99
849.186	15.83
849.478	1.07
849.77	1.99
850.061	-2.62
850.353	10.99
850.645	17.8
850.936	22.92
851.227	19.46
851.519	23.67
851.81	28.13
852.101	34.34
852.393	42.08
852.684	31.43
852.975	34.44
853.266	39.13
853.557	41.43
853.848	41.09
854.139	50.33
854.43	53.88
854.72	51.73
855.011	41.62
855.302	51.98
855.593	51.55
855.883	46.92
856.174	46.74
856.464	49.01
856.755	55.49
857.045	62.07
857.336	54.37
857.626	50.44
857.916	47.1
858.206	46.56
858.497	47.62
858.787	50.35
859.077	53.26
859.367	50.63
859.657	46.9
859.947	60.7
860.237	55.68
860.527	57.08
860.816	50.42
861.106	51.88
861.396	39.07
861.685	36.41
861.975	35.79
862.265	40.6
862.554	36.21
862.844	22.95
863.133	22.2
863.422	16.58
863.712	1.08
864.001	-18.83
864.29	-17.59
864.579	-20.88
864.868	-13.06
865.157	0.42
865.446	0.2
865.735	0.36
866.024	-8.11
866.313	-4.03
866.602	-11.06
866.891	-6.76
867.179	-22.47
867.468	-6.26
