Data from T1_Reflection__17__20-20-24-452.txt Node

Date: Wed Jun 02 20:20:24 CEST 2021
User: mabdelazizm
Spectrometer: FLMS18565
Trigger mode: 0
Integration Time (sec): 2.000000E0
Scans to average: 1
Electric dark correction enabled: true
Nonlinearity correction enabled: false
Boxcar width: 12
XAxis mode: Wavelengths
Number of Pixels in Spectrum: 2048
>>>>>Begin Spectral Data<<<<<
179.071	81.9
179.452	77.89
179.833	84.42
180.214	67.27
180.595	57.96
180.977	80.24
181.358	58.49
181.739	82.92
182.12	62.79
182.501	15.66
182.882	47.86
183.262	135
183.643	-169.72
184.024	11.65
184.405	21.56
184.786	16.07
185.166	13.96
185.547	9.04
185.927	7.57
186.308	15.19
186.689	11.51
187.069	15.62
187.449	19.22
187.83	18.28
188.21	20.07
188.59	22.98
188.971	21.73
189.351	19.9
189.731	16.37
190.111	13.74
190.491	13.36
190.871	12.46
191.251	12.4
191.631	11.05
192.011	9.54
192.391	8.92
192.771	12.09
193.151	12.03
193.531	10.75
193.91	8.88
194.29	8.68
194.67	8.38
195.049	9.6
195.429	9
195.808	8.56
196.188	9.1
196.567	6.34
196.946	5.25
197.326	5.42
197.705	4.8
198.084	2.69
198.464	3.07
198.843	3.49
199.222	4.8
199.601	6.56
199.98	6.7
200.359	6.89
200.738	7.81
201.117	8.59
201.496	8.42
201.875	8.94
202.254	8.25
202.632	7.87
203.011	7.55
203.39	8.68
203.768	8.72
204.147	8.52
204.525	8.75
204.904	10.09
205.282	10.64
205.661	10.4
206.039	10.93
206.418	10.95
206.796	11.12
207.174	9.85
207.552	9.73
207.931	9.26
208.309	10.18
208.687	9.46
209.065	9.16
209.443	9.29
209.821	8.76
210.199	8.03
210.577	6.3
210.954	6.69
211.332	7
211.71	7.06
212.088	7.24
212.465	6.86
212.843	6.57
213.221	6.44
213.598	6.99
213.976	6.31
214.353	5.74
214.731	4.55
215.108	4.06
215.485	4.15
215.863	4.13
216.24	3.84
216.617	4.58
216.994	4.64
217.371	4.08
217.749	2.9
218.126	3.17
218.503	2.49
218.88	2.71
219.256	2.72
219.633	3.1
220.01	3.71
220.387	3.72
220.764	3.88
221.14	3.96
221.517	3.83
221.894	3.99
222.27	3.9
222.647	3.62
223.023	3.35
223.4	3.46
223.776	3.68
224.153	3.86
224.529	4.12
224.905	4.5
225.282	4.68
225.658	4.4
226.034	4.15
226.41	4.24
226.786	4.54
227.162	4.79
227.538	4.75
227.914	4.74
228.29	4.45
228.666	4.13
229.042	3.93
229.418	3.93
229.793	3.65
230.169	3.55
230.545	3.22
230.92	3.28
231.296	3.08
231.672	3.13
232.047	3.12
232.422	3.19
232.798	3.06
233.173	2.87
233.549	2.74
233.924	2.62
234.299	2.49
234.674	2.31
235.05	2.52
235.425	2.5
235.8	2.53
236.175	2.4
236.55	2.35
236.925	2.3
237.3	2.28
237.675	2.27
238.049	2.33
238.424	2.32
238.799	2.28
239.174	2.33
239.548	2.32
239.923	2.35
240.297	2.26
240.672	2.25
241.046	2.23
241.421	2.26
241.795	2.16
242.17	2.13
242.544	2.12
242.918	2.2
243.293	2.21
243.667	2.13
244.041	2.14
244.415	2.01
244.789	1.98
245.163	1.93
245.537	1.93
245.911	1.89
246.285	1.92
246.659	1.94
247.033	1.98
247.406	2.02
247.78	1.93
248.154	1.94
248.528	1.9
248.901	1.89
249.275	1.91
249.648	1.89
250.022	1.9
250.395	1.83
250.769	1.8
251.142	1.86
251.515	1.93
251.888	1.98
252.262	1.94
252.635	1.94
253.008	2.02
253.381	1.99
253.754	2.01
254.127	2.02
254.5	2
254.873	2.02
255.246	2.03
255.619	1.96
255.992	1.92
256.364	1.91
256.737	1.87
257.11	1.94
257.483	1.93
257.855	1.94
258.228	1.93
258.6	1.95
258.973	1.96
259.345	1.93
259.718	1.93
260.09	1.99
260.462	1.96
260.834	1.93
261.207	1.91
261.579	1.92
261.951	1.93
262.323	1.91
262.695	1.9
263.067	1.94
263.439	1.93
263.811	1.93
264.183	1.91
264.555	1.92
264.927	1.93
265.298	1.95
265.67	1.97
266.042	1.99
266.413	1.91
266.785	1.93
267.156	1.96
267.528	1.94
267.899	1.93
268.271	1.9
268.642	1.92
269.013	1.96
269.385	1.94
269.756	1.93
270.127	1.9
270.498	1.89
270.87	1.89
271.241	1.85
271.612	1.79
271.983	1.77
272.354	1.76
272.724	1.78
273.095	1.78
273.466	1.84
273.837	1.85
274.208	1.85
274.578	1.8
274.949	1.8
275.32	1.77
275.69	1.82
276.061	1.79
276.431	1.75
276.802	1.76
277.172	1.76
277.542	1.75
277.913	1.77
278.283	1.73
278.653	1.72
279.023	1.73
279.394	1.74
279.764	1.74
280.134	1.71
280.504	1.73
280.874	1.79
281.244	1.77
281.614	1.71
281.983	1.7
282.353	1.68
282.723	1.61
283.093	1.62
283.462	1.58
283.832	1.57
284.202	1.57
284.571	1.56
284.941	1.57
285.31	1.55
285.68	1.57
286.049	1.61
286.418	1.6
286.788	1.61
287.157	1.59
287.526	1.57
287.895	1.55
288.264	1.54
288.633	1.57
289.002	1.56
289.371	1.54
289.74	1.48
290.109	1.44
290.478	1.44
290.847	1.49
291.216	1.48
291.585	1.48
291.953	1.48
292.322	1.45
292.691	1.47
293.059	1.48
293.428	1.49
293.796	1.54
294.165	1.51
294.533	1.49
294.901	1.53
295.27	1.46
295.638	1.46
296.006	1.45
296.374	1.46
296.743	1.41
297.111	1.44
297.479	1.42
297.847	1.37
298.215	1.36
298.583	1.33
298.95	1.34
299.318	1.32
299.686	1.36
300.054	1.35
300.422	1.31
300.789	1.31
301.157	1.32
301.525	1.33
301.892	1.34
302.26	1.32
302.627	1.26
302.994	1.22
303.362	1.26
303.729	1.34
304.097	1.31
304.464	1.28
304.831	1.25
305.198	1.25
305.565	1.28
305.932	1.37
306.299	1.35
306.666	1.36
307.033	1.38
307.4	1.39
307.767	1.43
308.134	1.45
308.501	1.51
308.867	1.55
309.234	1.56
309.601	1.61
309.967	1.6
310.334	1.61
310.701	1.61
311.067	1.6
311.433	1.63
311.8	1.63
312.166	1.63
312.533	1.59
312.899	1.57
313.265	1.53
313.631	1.56
313.997	1.55
314.363	1.57
314.729	1.53
315.096	1.51
315.461	1.48
315.827	1.46
316.193	1.47
316.559	1.44
316.925	1.43
317.291	1.42
317.656	1.36
318.022	1.31
318.388	1.26
318.753	1.25
319.119	1.24
319.484	1.23
319.85	1.2
320.215	1.21
320.581	1.16
320.946	1.12
321.311	1.13
321.676	1.17
322.042	1.15
322.407	1.15
322.772	1.18
323.137	1.14
323.502	1.11
323.867	1.1
324.232	1.13
324.597	1.13
324.962	1.14
325.327	1.15
325.691	1.21
326.056	1.24
326.421	1.29
326.785	1.33
327.15	1.32
327.514	1.31
327.879	1.35
328.243	1.31
328.608	1.34
328.972	1.32
329.337	1.34
329.701	1.4
330.065	1.42
330.429	1.35
330.794	1.32
331.158	1.39
331.522	1.4
331.886	1.37
332.25	1.42
332.614	1.41
332.978	1.4
333.342	1.38
333.705	1.41
334.069	1.41
334.433	1.38
334.797	1.31
335.16	1.25
335.524	1.22
335.887	1.27
336.251	1.25
336.614	1.23
336.978	1.16
337.341	1.23
337.705	1.21
338.068	1.29
338.431	1.26
338.794	1.18
339.158	1.24
339.521	1.23
339.884	1.14
340.247	1.06
340.61	1.03
340.973	1.08
341.336	1.1
341.699	1.09
342.062	1.11
342.424	1.04
342.787	1.01
343.15	1.03
343.512	0.97
343.875	0.97
344.238	0.98
344.6	0.92
344.963	0.87
345.325	0.88
345.688	0.93
346.05	1.01
346.412	0.98
346.775	0.92
347.137	0.88
347.499	0.94
347.861	1.01
348.223	1.02
348.585	1.07
348.947	1.17
349.309	1.15
349.671	1.14
350.033	1.08
350.395	1.07
350.757	1.11
351.118	1.09
351.48	1.18
351.842	1.22
352.203	1.2
352.565	1.2
352.927	1.26
353.288	1.32
353.65	1.43
354.011	1.42
354.372	1.42
354.734	1.46
355.095	1.41
355.456	1.43
355.817	1.48
356.179	1.47
356.54	1.42
356.901	1.44
357.262	1.34
357.623	1.33
357.984	1.31
358.345	1.33
358.705	1.35
359.066	1.27
359.427	1.32
359.788	1.29
360.148	1.31
360.509	1.27
360.87	1.26
361.23	1.16
361.591	1.28
361.951	1.22
362.312	1.17
362.672	1.09
363.032	1.07
363.393	1.08
363.753	1.04
364.113	1.04
364.473	1.05
364.833	1.01
365.193	0.98
365.553	0.93
365.913	0.93
366.273	0.92
366.633	0.95
366.993	0.87
367.353	0.77
367.713	0.79
368.072	0.89
368.432	0.83
368.792	0.87
369.151	0.85
369.511	0.86
369.87	0.84
370.23	0.96
370.589	0.89
370.949	0.89
371.308	0.94
371.667	0.92
372.027	0.89
372.386	0.89
372.745	0.89
373.104	0.87
373.463	0.76
373.822	0.71
374.181	0.65
374.54	0.67
374.899	0.64
375.258	0.73
375.617	0.74
375.975	0.82
376.334	0.89
376.693	0.88
377.052	0.81
377.41	0.77
377.769	0.78
378.127	0.76
378.486	0.73
378.844	0.72
379.202	0.67
379.561	0.65
379.919	0.69
380.277	0.69
380.636	0.74
380.994	0.78
381.352	0.77
381.71	0.73
382.068	0.71
382.426	0.76
382.784	0.86
383.142	0.96
383.5	0.92
383.857	1
384.215	1
384.573	0.95
384.931	0.9
385.288	0.99
385.646	1.02
386.003	1.01
386.361	1.04
386.718	1.05
387.076	1.08
387.433	1.13
387.791	1.07
388.148	1.11
388.505	1.13
388.862	1.09
389.22	1.06
389.577	1.02
389.934	1.01
390.291	1.08
390.648	1.12
391.005	1.16
391.362	1.2
391.718	1.14
392.075	1.14
392.432	1.15
392.789	1.09
393.145	1
393.502	1.05
393.859	1.08
394.215	0.99
394.572	1
394.928	1.04
395.285	1.03
395.641	1.04
395.997	1.04
396.354	0.99
396.71	1.04
397.066	1.01
397.422	1.04
397.778	1.08
398.134	1.08
398.491	1.17
398.846	1.13
399.202	1.13
399.558	1.12
399.914	1.11
400.27	1.11
400.626	1.06
400.981	1.1
401.337	1.13
401.693	1.13
402.048	1.15
402.404	1.19
402.759	1.28
403.115	1.32
403.47	1.3
403.826	1.32
404.181	1.33
404.536	1.27
404.892	1.32
405.247	1.32
405.602	1.31
405.957	1.29
406.312	1.23
406.667	1.35
407.022	1.34
407.377	1.31
407.732	1.31
408.087	1.25
408.442	1.31
408.796	1.34
409.151	1.39
409.506	1.52
409.86	1.45
410.215	1.47
410.57	1.45
410.924	1.42
411.279	1.36
411.633	1.34
411.987	1.4
412.342	1.42
412.696	1.46
413.05	1.56
413.404	1.57
413.758	1.6
414.113	1.56
414.467	1.62
414.821	1.71
415.175	1.85
415.529	1.79
415.882	1.78
416.236	1.75
416.59	1.87
416.944	1.95
417.298	2
417.651	2.01
418.005	2
418.358	1.99
418.712	2.11
419.065	2.18
419.419	2.25
419.772	2.36
420.126	2.4
420.479	2.4
420.832	2.33
421.185	2.31
421.539	2.35
421.892	2.23
422.245	2.28
422.598	2.26
422.951	2.35
423.304	2.35
423.657	2.28
424.01	2.24
424.363	2.27
424.715	2.32
425.068	2.33
425.421	2.28
425.773	2.27
426.126	2.17
426.479	2.13
426.831	2.03
427.184	2.1
427.536	2.08
427.889	2.06
428.241	2.14
428.593	2.1
428.945	2.11
429.298	2.14
429.65	2.23
430.002	2.34
430.354	2.29
430.706	2.35
431.058	2.33
431.41	2.38
431.762	2.48
432.114	2.45
432.466	2.56
432.817	2.62
433.169	2.54
433.521	2.66
433.872	2.72
434.224	2.72
434.576	2.73
434.927	2.75
435.279	2.8
435.63	2.88
435.981	2.85
436.333	2.84
436.684	2.93
437.035	2.86
437.387	2.86
437.738	2.87
438.089	2.84
438.44	2.85
438.791	2.85
439.142	2.85
439.493	2.87
439.844	2.89
440.195	2.83
440.545	2.78
440.896	2.88
441.247	2.84
441.598	2.75
441.948	2.88
442.299	2.79
442.649	2.73
443	2.72
443.35	2.67
443.701	2.67
444.051	2.67
444.401	2.74
444.752	2.65
445.102	2.62
445.452	2.53
445.802	2.47
446.152	2.54
446.502	2.59
446.852	2.53
447.202	2.41
447.552	2.35
447.902	2.38
448.252	2.34
448.602	2.38
448.952	2.41
449.301	2.38
449.651	2.32
450.001	2.32
450.35	2.4
450.7	2.3
451.049	2.37
451.399	2.42
451.748	2.43
452.097	2.5
452.447	2.55
452.796	2.43
453.145	2.42
453.494	2.41
453.843	2.44
454.193	2.61
454.542	2.77
454.891	2.76
455.239	2.54
455.588	2.57
455.937	2.56
456.286	2.58
456.635	2.63
456.984	2.61
457.332	2.62
457.681	2.72
458.03	2.81
458.378	2.79
458.727	2.77
459.075	2.69
459.423	2.78
459.772	2.8
460.12	2.82
460.468	2.97
460.817	3.08
461.165	3.13
461.513	3.24
461.861	3.2
462.209	3.36
462.557	3.38
462.905	3.23
463.253	3.1
463.601	3.07
463.949	3.33
464.297	3.35
464.644	3.42
464.992	3.52
465.34	3.49
465.687	3.56
466.035	3.46
466.383	3.4
466.73	3.36
467.078	3.45
467.425	3.41
467.772	3.4
468.12	3.32
468.467	3.17
468.814	3.23
469.161	3.1
469.508	2.88
469.856	2.84
470.203	2.87
470.55	2.91
470.897	2.78
471.243	2.76
471.59	2.7
471.937	2.71
472.284	2.6
472.631	2.5
472.977	2.54
473.324	2.59
473.671	2.52
474.017	2.48
474.364	2.42
474.71	2.39
475.057	2.41
475.403	2.29
475.749	2.3
476.096	2.33
476.442	2.4
476.788	2.46
477.134	2.51
477.48	2.52
477.826	2.58
478.172	2.69
478.518	2.63
478.864	2.54
479.21	2.48
479.556	2.52
479.902	2.53
480.248	2.63
480.593	2.61
480.939	2.66
481.285	2.66
481.63	2.64
481.976	2.67
482.321	2.71
482.667	2.76
483.012	2.77
483.357	2.92
483.703	2.91
484.048	3.1
484.393	3.13
484.738	3.21
485.084	3.28
485.429	3.39
485.774	3.56
486.119	3.63
486.464	3.76
486.808	3.85
487.153	4.08
487.498	4.32
487.843	4.62
488.188	4.85
488.532	5.12
488.877	5.3
489.222	5.72
489.566	6.15
489.911	6.57
490.255	7.03
490.6	7.43
490.944	7.77
491.288	8.23
491.633	8.71
491.977	9.1
492.321	9.63
492.665	10.07
493.009	10.61
493.353	11.13
493.697	11.67
494.041	12.27
494.385	12.83
494.729	13.4
495.073	14.03
495.417	14.72
495.76	15.33
496.104	16.01
496.448	16.64
496.791	17.33
497.135	18.02
497.479	18.72
497.822	19.4
498.165	19.99
498.509	20.78
498.852	21.43
499.196	22.2
499.539	22.93
499.882	23.55
500.225	24.32
500.568	25.1
500.911	25.81
501.254	26.52
501.597	27.21
501.94	27.97
502.283	28.76
502.626	29.48
502.969	30.16
503.312	30.93
503.654	31.67
503.997	32.38
504.34	33.06
504.682	33.74
505.025	34.34
505.367	35.07
505.71	35.77
506.052	36.57
506.395	37.18
506.737	37.84
507.079	38.42
507.421	39.11
507.764	39.68
508.106	40.27
508.448	40.9
508.79	41.46
509.132	42.06
509.474	42.68
509.816	43.2
510.158	43.8
510.499	44.2
510.841	44.61
511.183	45.04
511.525	45.48
511.866	45.91
512.208	46.17
512.549	46.59
512.891	47.01
513.232	47.45
513.574	48.12
513.915	48.38
514.256	48.75
514.598	49.1
514.939	49.57
515.28	50.02
515.621	50.38
515.962	50.71
516.303	51.03
516.644	51.42
516.985	51.73
517.326	52.04
517.667	52.17
518.008	52.34
518.349	52.59
518.69	52.84
519.03	53.15
519.371	53.48
519.712	53.76
520.052	54.1
520.393	54.37
520.733	54.77
521.074	54.94
521.414	55.32
521.754	55.55
522.095	55.59
522.435	56.04
522.775	56.28
523.115	56.55
523.455	56.82
523.795	56.91
524.135	57.02
524.475	57.33
524.815	57.58
525.155	57.74
525.495	57.96
525.835	58.2
526.175	58.39
526.514	58.65
526.854	58.89
527.194	59.06
527.533	59.19
527.873	59.21
528.212	59.17
528.552	59.27
528.891	59.37
529.23	59.4
529.57	59.57
529.909	59.55
530.248	59.67
530.587	59.78
530.927	59.79
531.266	59.98
531.605	60.15
531.944	60.19
532.283	60.41
532.621	60.51
532.96	60.53
533.299	60.6
533.638	60.84
533.977	60.92
534.315	60.99
534.654	61.11
534.992	61.07
535.331	61.23
535.67	61.23
536.008	61.25
536.346	61.35
536.685	61.63
537.023	61.73
537.361	61.83
537.7	62.03
538.038	62.12
538.376	62.28
538.714	62.35
539.052	62.39
539.39	62.43
539.728	62.45
540.066	62.44
540.404	62.41
540.741	62.48
541.079	62.44
541.417	62.56
541.755	62.72
542.092	62.56
542.43	62.88
542.767	62.76
543.105	62.83
543.442	62.81
543.78	62.79
544.117	62.84
544.454	62.99
544.792	63.12
545.129	63.13
545.466	63.03
545.803	63.09
546.14	63.05
546.477	63.15
546.814	63.21
547.151	63.23
547.488	63.39
547.825	63.29
548.162	63.28
548.499	63.33
548.835	63.42
549.172	63.48
549.509	63.73
549.845	63.68
550.182	63.56
550.518	63.84
550.855	63.63
551.191	63.78
551.528	63.92
551.864	63.99
552.2	64.06
552.537	64.19
552.873	64.33
553.209	64.32
553.545	64.24
553.881	64.5
554.217	64.55
554.553	64.66
554.889	64.58
555.225	64.61
555.561	64.62
555.896	64.58
556.232	64.73
556.568	64.86
556.903	64.67
557.239	64.7
557.575	64.56
557.91	64.41
558.245	64.39
558.581	64.48
558.916	64.46
559.252	64.53
559.587	64.71
559.922	64.68
560.257	64.78
560.592	64.7
560.928	64.74
561.263	64.73
561.598	64.67
561.933	64.89
562.267	64.84
562.602	64.93
562.937	64.72
563.272	64.84
563.607	64.78
563.941	64.78
564.276	65.05
564.611	65.17
564.945	65.2
565.28	65.44
565.614	65.53
565.949	65.64
566.283	65.83
566.617	65.81
566.951	65.9
567.286	65.88
567.62	65.9
567.954	65.88
568.288	65.91
568.622	65.99
568.956	65.9
569.29	65.82
569.624	65.8
569.958	65.79
570.292	65.81
570.626	65.83
570.959	65.9
571.293	66.03
571.627	66.11
571.96	66.18
572.294	66.21
572.627	66.07
572.961	66.08
573.294	65.97
573.627	66.06
573.961	66.12
574.294	66.15
574.627	66.26
574.961	66.41
575.294	66.43
575.627	66.48
575.96	66.57
576.293	66.52
576.626	66.56
576.959	66.57
577.292	66.69
577.624	66.67
577.957	66.74
578.29	66.82
578.623	66.73
578.955	66.82
579.288	66.71
579.62	66.72
579.953	66.6
580.285	66.57
580.618	66.61
580.95	66.75
581.282	66.83
581.615	66.89
581.947	66.81
582.279	66.74
582.611	66.76
582.943	66.64
583.275	66.57
583.607	66.52
583.939	66.45
584.271	66.36
584.603	66.53
584.935	66.49
585.267	66.5
585.598	66.57
585.93	66.72
586.262	66.68
586.593	66.7
586.925	66.84
587.256	66.8
587.588	66.77
587.919	66.84
588.25	66.95
588.582	66.9
588.913	66.91
589.244	66.84
589.575	66.85
589.907	66.99
590.238	66.98
590.569	66.91
590.9	66.94
591.231	67
591.562	66.87
591.892	66.9
592.223	66.98
592.554	67.01
592.885	66.91
593.215	66.85
593.546	66.9
593.877	66.79
594.207	66.69
594.538	66.81
594.868	66.83
595.198	66.85
595.529	66.86
595.859	66.98
596.189	67.02
596.52	67.02
596.85	67.16
597.18	67.19
597.51	67.17
597.84	67.19
598.17	67.15
598.5	67.17
598.83	67.2
599.16	67.23
599.489	67.13
599.819	67.26
600.149	67.3
600.479	67.42
600.808	67.52
601.138	67.38
601.467	67.41
601.797	67.43
602.126	67.53
602.456	67.6
602.785	67.43
603.114	67.42
603.443	67.29
603.773	67.34
604.102	67.39
604.431	67.33
604.76	67.41
605.089	67.5
605.418	67.5
605.747	67.45
606.076	67.33
606.405	67.28
606.733	67.27
607.062	67.29
607.391	67.28
607.72	67.24
608.048	67.18
608.377	67.25
608.705	67.23
609.034	67.14
609.362	67.21
609.69	67.36
610.019	67.16
610.347	67.19
610.675	66.99
611.004	66.98
611.332	66.96
611.66	66.9
611.988	66.61
612.316	66.56
612.644	66.64
612.972	66.64
613.3	66.63
613.627	66.53
613.955	66.49
614.283	66.51
614.611	66.58
614.938	66.53
615.266	66.57
615.593	66.47
615.921	66.84
616.248	66.92
616.576	66.87
616.903	66.81
617.23	66.77
617.558	66.82
617.885	66.81
618.212	66.91
618.539	66.82
618.866	67.09
619.193	67.02
619.52	67.31
619.847	67.57
620.174	67.91
620.501	67.77
620.828	67.71
621.155	67.63
621.481	67.38
621.808	67.49
622.135	67.51
622.461	67.66
622.788	67.7
623.114	67.94
623.441	67.99
623.767	68.03
624.093	68.01
624.42	67.98
624.746	68.04
625.072	67.73
625.398	67.66
625.725	67.83
626.051	67.68
626.377	68.08
626.703	68.46
627.029	68.43
627.354	68.6
627.68	68.1
628.006	68.1
628.332	67.79
628.658	68.05
628.983	67.9
629.309	67.76
629.634	67.61
629.96	67.66
630.285	67.79
630.611	67.57
630.936	67.45
631.262	67.12
631.587	67.04
631.912	67.69
632.237	67.49
632.562	67.53
632.887	67.42
633.213	67.67
633.538	67.67
633.863	67.51
634.187	67.72
634.512	67.16
634.837	66.98
635.162	67.12
635.487	67.1
635.811	67.76
636.136	67.95
636.461	68.04
636.785	68.08
637.11	68.32
637.434	68.33
637.758	68.3
638.083	68.26
638.407	68.24
638.731	68.43
639.056	68.25
639.38	68.2
639.704	68.71
640.028	68.34
640.352	68.54
640.676	68.97
641	68.68
641.324	68.25
641.648	68.36
641.972	68.9
642.295	68.53
642.619	68.76
642.943	68.53
643.266	68.05
643.59	67.95
643.913	67.63
644.237	67.08
644.56	66.89
644.884	67.07
645.207	67.46
645.53	67.27
645.854	67.68
646.177	67.55
646.5	67.97
646.823	100.2
647.146	101.56
647.469	101.12
647.792	101.13
648.115	100.57
648.438	99.93
648.761	96.81
649.084	91.24
649.406	87.23
649.729	83.79
650.052	82.26
650.374	81.67
650.697	81.58
651.019	81.54
651.342	81.74
651.664	81.97
651.987	81.8
652.309	81.88
652.631	81.9
652.953	81.66
653.276	81.72
653.598	81.79
653.92	82.04
654.242	82.1
654.564	82.07
654.886	68.99
655.208	68.5
655.53	68.69
655.851	68.37
656.173	68.64
656.495	68.68
656.816	68.2
657.138	67.48
657.46	66.15
657.781	66.78
658.103	67.57
658.424	68.2
658.746	67.53
659.067	67.07
659.388	66.83
659.709	66.56
660.031	66.6
660.352	66.61
660.673	67.15
660.994	67.61
661.315	67.59
661.636	67.64
661.957	66.71
662.278	67.61
662.599	67.62
662.919	66.75
663.24	66.66
663.561	66.69
663.881	67.68
664.202	66.8
664.523	66.36
664.843	66.83
665.164	67.32
665.484	68.42
665.804	68.41
666.125	68.24
666.445	67.98
666.765	68.33
667.085	68.9
667.405	69
667.726	69.24
668.046	69.04
668.366	68.88
668.686	68.38
669.005	68.14
669.325	67.51
669.645	67.43
669.965	67.7
670.285	66.65
670.604	66.12
670.924	66.42
671.243	66.63
671.563	67.29
671.882	66.9
672.202	67.05
672.521	68.23
672.841	68.17
673.16	68.44
673.479	68.03
673.798	67.74
674.117	67.47
674.437	67.88
674.756	67.82
675.075	67.89
675.394	67.48
675.713	66.99
676.031	67.25
676.35	67.36
676.669	67.58
676.988	67.77
677.306	67.72
677.625	68.01
677.944	68.53
678.262	68.48
678.581	68.87
678.899	69.29
679.218	69.07
679.536	68.57
679.854	67.63
680.172	68.36
680.491	67.37
680.809	67.15
681.127	66.1
681.445	66.07
681.763	65.45
682.081	65.84
682.399	65.54
682.717	65.18
683.035	65.11
683.352	65.73
683.67	66.38
683.988	67.16
684.306	68.06
684.623	68.45
684.941	67.84
685.258	67.52
685.576	67.66
685.893	66.7
686.211	66.91
686.528	66.78
686.845	66.26
687.162	67.17
687.48	66.86
687.797	67.64
688.114	66.87
688.431	66.7
688.748	66.81
689.065	67.75
689.382	67.39
689.699	68.09
690.015	67.95
690.332	67.89
690.649	68.22
690.966	68.4
691.282	68.07
691.599	67.31
691.915	66.52
692.232	65.73
692.548	65.56
692.865	65.72
693.181	66.62
693.497	66.32
693.813	66.96
694.13	67.26
694.446	67.12
694.762	67.4
695.078	67.16
695.394	66.69
695.71	66.83
696.026	67.43
696.342	67.15
696.658	67.41
696.973	66.46
697.289	66.73
697.605	66.34
697.92	65.67
698.236	66.45
698.551	66.83
698.867	65.94
699.182	66
699.498	66.24
699.813	67.45
700.128	68.05
700.444	68.15
700.759	69.59
701.074	68.69
701.389	69.03
701.704	68.77
702.019	67.89
702.334	68.57
702.649	68.37
702.964	67.51
703.279	68.64
703.594	69.51
703.908	68.91
704.223	69.18
704.538	68.29
704.852	68.29
705.167	67.08
705.481	67.84
705.796	68.35
706.11	67.81
706.425	67.57
706.739	67.58
707.053	68.18
707.368	68.51
707.682	65.85
707.996	65.85
708.31	66.32
708.624	65.33
708.938	65.99
709.252	64.79
709.566	64.91
709.88	66.22
710.193	66.72
710.507	66.71
710.821	67.82
711.135	67.05
711.448	66.78
711.762	67.66
712.075	68.3
712.389	67.35
712.702	67.79
713.015	69.08
713.329	68.97
713.642	70.05
713.955	69.95
714.269	69.74
714.582	70.41
714.895	68.87
715.208	68.61
715.521	69.95
715.834	68.63
716.147	67.71
716.459	67.72
716.772	67.72
717.085	69.04
717.398	68.61
717.71	67.58
718.023	66.44
718.336	67.21
718.648	65.65
718.961	65.69
719.273	64.78
719.585	63.33
719.898	62.67
720.21	64.8
720.522	64.56
720.834	63.55
721.147	63.41
721.459	61.93
721.771	61.6
722.083	62.9
722.395	62.29
722.707	63.33
723.019	62.92
723.33	62.68
723.642	64.14
723.954	64.67
724.265	64.23
724.577	63.1
724.889	62.01
725.2	62.77
725.512	63
725.823	63.33
726.135	61.7
726.446	61.15
726.757	60.61
727.068	60.81
727.38	61.44
727.691	62.09
728.002	61.94
728.313	62.48
728.624	63.21
728.935	62.82
729.246	62.78
729.557	63.35
729.867	63.39
730.178	63.91
730.489	64.51
730.8	64.59
731.11	64.52
731.421	63.54
731.731	63.29
732.042	63.26
732.352	63.97
732.663	64.31
732.973	64.58
733.283	64.23
733.594	64.21
733.904	64.66
734.214	65.41
734.524	66.05
734.834	65.96
735.144	66.46
735.454	65.77
735.764	65.38
736.074	65.79
736.384	65.55
736.694	65.59
737.003	65.66
737.313	65.44
737.623	63.79
737.932	62.98
738.242	61.71
738.551	61.72
738.861	62.38
739.17	61.55
739.479	60.28
739.789	61.98
740.098	60.87
740.407	62.02
740.716	60.87
741.025	60.98
741.334	60.35
741.643	60.37
741.952	60.88
742.261	61.71
742.57	62.29
742.879	60.73
743.188	61.26
743.497	62.78
743.805	61.67
744.114	61.27
744.422	61.6
744.731	62.63
745.04	61.43
745.348	62.65
745.656	63.89
745.965	64.04
746.273	63.33
746.581	63.73
746.889	66.79
747.198	67.92
747.506	65.29
747.814	65.07
748.122	63.56
748.43	63.48
748.738	63.89
749.046	65.01
749.353	63.94
749.661	62.09
749.969	60.79
750.277	58.93
750.584	61.39
750.892	62.19
751.199	62.34
751.507	61.97
751.814	62.26
752.122	62.4
752.429	61.09
752.736	63.04
753.044	62.82
753.351	62.29
753.658	61.31
753.965	60.44
754.272	58.76
754.579	57.23
754.886	56.67
755.193	56.4
755.5	58.15
755.807	58.39
756.114	57.69
756.42	56.17
756.727	56.28
757.034	56.11
757.34	57.22
757.647	57.82
757.953	57.54
758.26	55.47
758.566	54.29
758.872	52.96
759.179	53.61
759.485	53.16
759.791	51.17
760.097	49.93
760.403	49.45
760.709	48.69
761.015	50.25
761.321	52.89
761.627	53.78
761.933	56.34
762.239	57.59
762.545	57.74
762.851	57.64
763.156	57.55
763.462	56.44
763.767	57.09
764.073	56.96
764.378	53.45
764.684	55.68
764.989	55.38
765.295	55.52
765.6	55.96
765.905	58.66
766.21	59.55
766.515	59.03
766.821	56.2
767.126	58.24
767.431	60.8
767.736	62.61
768.041	60.64
768.345	62.59
768.65	61.73
768.955	59.02
769.26	60.11
769.564	59.06
769.869	56.52
770.174	54.4
770.478	53.67
770.783	49.4
771.087	52.65
771.391	53.28
771.696	53.81
772	59.3
772.304	57.66
772.608	56.68
772.913	53.14
773.217	51.96
773.521	46.56
773.825	41.99
774.129	43.07
774.433	45.35
774.736	43.79
775.04	41.91
775.344	41.93
775.648	43.88
775.951	39.21
776.255	40.67
776.559	35.87
776.862	34.05
777.166	31.66
777.469	37.75
777.772	42.7
778.076	49.02
778.379	52.08
778.682	50.06
778.985	48.79
779.289	50.11
779.592	44.74
779.895	45.32
780.198	49.63
780.501	47.57
780.804	51.39
781.106	51.82
781.409	53.05
781.712	53.9
782.015	57.26
782.317	52.76
782.62	53.26
782.923	54.32
783.225	49.99
783.527	53.18
783.83	50.5
784.132	55.17
784.435	55.83
784.737	53.98
785.039	48.87
785.341	53.12
785.643	50.44
785.945	48.28
786.248	49.78
786.55	48.77
786.851	54.62
787.153	56.01
787.455	54.05
787.757	50.68
788.059	51.87
788.36	52.64
788.662	53.01
788.964	55.58
789.265	53.46
789.567	49.55
789.868	52.34
790.17	50.82
790.471	48.58
790.772	50.99
791.074	48.77
791.375	46.76
791.676	43.21
791.977	43.78
792.278	47.09
792.579	53.12
792.88	49.8
793.181	53.84
793.482	58.11
793.783	52.13
794.083	55.79
794.384	50.9
794.685	51.1
794.986	52.55
795.286	49.2
795.587	48.15
795.887	44.3
796.188	46.21
796.488	45.91
796.788	44.97
797.089	44.11
797.389	43.98
797.689	44.73
797.989	41.13
798.289	41.01
798.589	41.79
798.889	37.21
799.189	40.22
799.489	38.28
799.789	38.07
800.089	31.9
800.389	37.94
800.688	35.81
800.988	35.41
801.288	27.48
801.587	25.27
801.887	19.81
802.186	18.68
802.486	4.14
802.785	3.78
803.085	19.48
803.384	23.59
803.683	17.51
803.982	15.28
804.281	13.98
804.58	16.86
804.879	15.83
805.178	10.53
805.477	14.77
805.776	31.69
806.075	25.91
806.374	34.02
806.673	28.29
806.971	29.08
807.27	30.38
807.569	34
807.867	18.09
808.166	12.86
808.464	11.22
808.763	24.01
809.061	19.71
809.359	28.27
809.658	34.5
809.956	57.75
810.254	55.47
810.552	47.77
810.85	49.29
811.148	51.49
811.446	53.77
811.744	57.06
812.042	59.48
812.34	59.77
812.638	64.92
812.935	71.19
813.233	47.52
813.531	43.66
813.828	45.91
814.126	32.79
814.423	36.85
814.721	45.18
815.018	31.81
815.316	32.73
815.613	31.09
815.91	19.75
816.207	23.76
816.504	31.39
816.802	24.77
817.099	16.06
817.396	-4.97
817.693	-26.61
817.99	-11.31
818.286	-32.51
818.583	-13.52
818.88	-5.15
819.177	-13.59
819.473	4.88
819.77	11.35
820.067	1.05
820.363	9.62
820.66	22.68
820.956	34.12
821.252	38.21
821.549	50.98
821.845	53.72
822.141	45.34
822.437	53.89
822.734	61.48
823.03	65.01
823.326	70.7
823.622	77.51
823.918	69.66
824.213	69.33
824.509	71.37
824.805	70.36
825.101	72.73
825.397	71.66
825.692	60.57
825.988	60.55
826.283	65.59
826.579	67.54
826.874	77.39
827.17	79.94
827.465	81.17
827.76	79.6
828.056	76.38
828.351	69.76
828.646	72.02
828.941	71.62
829.236	58.02
829.531	57.76
829.826	55.88
830.121	45.15
830.416	48.44
830.711	41.54
831.006	40.45
831.3	42.88
831.595	41.84
831.89	35.51
832.184	43.88
832.479	31.05
832.773	32.97
833.068	41.21
833.362	28.24
833.656	29.99
833.951	22.4
834.245	13.9
834.539	10.8
834.833	24.66
835.127	11.31
835.421	5.47
835.715	10.29
836.009	1.01
836.303	8.38
836.597	15.66
836.891	23.12
837.185	25.28
837.478	27.41
837.772	26.95
838.066	35
838.359	37.37
838.653	38.25
838.946	41.86
839.24	32.07
839.533	27.41
839.826	33.81
840.119	33.95
840.413	41.24
840.706	51.24
840.999	45.93
841.292	42.57
841.585	42.84
841.878	44.85
842.171	47.92
842.464	43.2
842.757	42.16
843.049	36.75
843.342	42.13
843.635	38.01
843.927	32.64
844.22	31.98
844.513	23.07
844.805	18.76
845.098	17.41
845.39	14.21
845.682	14.81
845.975	12.79
846.267	17.05
846.559	23.03
846.851	17.43
847.143	20.87
847.435	26.93
847.727	25.81
848.019	15.08
848.311	22.69
848.603	26.65
848.895	31.94
849.186	34.42
849.478	17.36
849.77	27.21
850.061	18.03
850.353	29.82
850.645	27.74
850.936	34.48
851.227	47.8
851.519	37.32
851.81	43.3
852.101	48.22
852.393	42.87
852.684	42.7
852.975	42.94
853.266	46.11
853.557	33.4
853.848	30.05
854.139	46.67
854.43	33.96
854.72	18.34
855.011	4.81
855.302	13.04
855.593	8.29
855.883	10.89
856.174	8.73
856.464	11.59
856.755	17.96
857.045	18.81
857.336	28.66
857.626	24.05
857.916	22.17
858.206	19.07
858.497	12.25
858.787	20.82
859.077	24.29
859.367	25.2
859.657	37.2
859.947	33.64
860.237	23.81
860.527	34
860.816	42.01
861.106	42.84
861.396	38.4
861.685	47.55
861.975	61.4
862.265	66.26
862.554	60.69
862.844	55.75
863.133	65.61
863.422	59.99
863.712	55.04
864.001	47.19
864.29	47.07
864.579	36.2
864.868	38.51
865.157	48.75
865.446	50.5
865.735	55.93
866.024	48.73
866.313	38.8
866.602	34.13
866.891	21.13
867.179	24.61
867.468	39.4
